1.996271140008810674e+00
1.229456374329264579e+00
9.311010730702258265e-01
6.301602033687651039e-01
4.434161562508968646e-01
2.044766288429247514e-01
1.099086588242479123e-01
6.440439317076428194e-02
9.848365182653773253e-02
3.269541435939234963e-01
1.504955190454902447e-01
2.909736656775486763e-01
1.918209453542701060e-01
2.171663209568591157e-01
2.252200172098442477e-01
3.109368251483649592e-01
3.767377131239199595e-01
2.631459393742060504e-01
5.126263469170136977e-01
2.237647205270665851e-01
3.792606222474370070e-01
5.113156995375268687e-01
5.014874432651262870e-01
4.184459494592691620e-01
6.399192219657521274e-01
4.340098242774768078e-01
7.620659486668011073e-01
4.936163396940542736e-01
5.434056846644621519e-01
4.185950095318613506e-01
5.198717796393399482e-01
6.839053731275994696e-01
6.610126834553904374e-01
6.751118222657811474e-01
6.840557428592025646e-01
9.118979056039354658e-01
9.722265648755590295e-01
7.969513788718392000e-01
8.944958269051000999e-01
8.257908958425969059e-01
8.271227655341102381e-01
8.413462205000623584e-01
8.904791082089997811e-01
7.904923831167411929e-01
9.701067036595344417e-01
7.538814517888938749e-01
9.800438003068699944e-01
8.070926072060626844e-01
9.805021123440076369e-01
9.085975216818067413e-01
1.092972135250658283e+00
8.055047673580004730e-01
1.079417304821579382e+00
1.053514839127666969e+00
1.060590628943948843e+00
9.225891532561145691e-01
1.141619904449436618e+00
1.039465383892866690e+00
1.053057617564432169e+00
1.103514983004781458e+00
8.895546662213599243e-01
9.287643939933023507e-01
1.006121578237969327e+00
9.764842947312410981e-01
1.098689371079310639e+00
9.921408481493793063e-01
1.011938675596369075e+00
1.129873914178425087e+00
1.230623004275001042e+00
1.166348098678612555e+00
1.140249243690386383e+00
9.054964597252384007e-01
1.199757127736376772e+00
1.229985505997574169e+00
1.006594501776555850e+00
1.048818343070692771e+00
1.068406673143031727e+00
1.210829485045089360e+00
1.214822967911288742e+00
1.197113403010330757e+00
1.002012658277625423e+00
1.244165551515243884e+00
1.244870515825054591e+00
1.198928264435564106e+00
1.335319057276221466e+00
1.028481303935742774e+00
1.073159475641857430e+00
1.176832014058918130e+00
1.282979608973339625e+00
8.381309395201632650e-01
1.147426072571004374e+00
1.184368558361256429e+00
1.270420532709855888e+00
1.132531770152485961e+00
1.158317226637274766e+00
1.110712497453754999e+00
1.020413192351920406e+00
1.000873572104086451e+00
1.015642463647516536e+00
9.563831633430938117e-01
9.531123244730876909e-01
9.067313354194499464e-01
1.055927662788928467e+00
1.033246865891861432e+00
1.047689630765186619e+00
8.579281833064504870e-01
9.402428836771761222e-01
9.266753254714859001e-01
9.507341363857071403e-01
9.432655933770058843e-01
1.182302973186567296e+00
7.578204282240348366e-01
6.114070705000538286e-01
7.965978705203277110e-01
9.616398869056955734e-01
1.113921034847087821e+00
1.101069110812749496e+00
9.961744364741617064e-01
8.982123854113719386e-01
8.850972561812767703e-01
7.328622361356808002e-01
4.223956037429844046e-01
8.495242830740771245e-01
8.773020552391037619e-01
7.422034119832260357e-01
6.441784518452564612e-01
7.105985193199436667e-01
6.614267946771912321e-01
6.298356466859623692e-01
7.046163083535669225e-01
5.587663029095012446e-01
3.727126959696582809e-01
5.538057346065319297e-01
4.841493260632623308e-01
7.446877942658212124e-01
5.122712113605750739e-01
5.391168129678181042e-01
4.521844685349610260e-01
3.831051640870256625e-01
4.545726712554502558e-01
5.248539625290047361e-01
3.250230115557097288e-01
2.795437256923948288e-01
3.124269554889356204e-01
3.654749128003811354e-01
3.827241363321091661e-01
2.690851493630844193e-01
3.484610702929395454e-01
7.971000606400188704e-02
2.149328249760198983e-01
1.970332010946336532e-01
1.879493227882133299e-01
9.354632413044977612e-02
2.068752887566950860e-01
6.717076610556807492e-02
3.887278225927529030e-02
-1.567935690324420706e-02
5.030429665701162401e-02
1.555484650291115434e-01
4.765498610580183592e-02
1.994884552747832121e-02
4.424803010720452373e-02
1.776452450075673983e-01
1.162386636439034782e-01
-2.368476200911056040e-01
2.209717043859514563e-02
-2.552680918232730356e-02
-1.929518271054594392e-01
-2.117551104937375750e-01
-1.620142428337773000e-01
-1.562661944537359904e-01
-1.505493768767837415e-01
-3.125326179759559952e-01
-3.141626383575592540e-01
-1.893019383592778326e-01
-1.954970486902483651e-01
-3.373271853639280282e-01
-2.295167393152235946e-01
-3.491510301582378961e-01
-3.637596489234862229e-01
-2.673126134442691537e-01
-4.380622432761658858e-01
-4.108373360444522726e-01
-5.473293471640718888e-01
-5.017607504648453620e-01
-4.318181658534813727e-01
-4.304922645822399918e-01
-4.039571794731512955e-01
-4.444396733464119342e-01
-3.707608580173871182e-01
-5.629846518519266985e-01
-5.679829868353497568e-01
-6.797638266011019059e-01
-6.887508367873973469e-01
-5.084807110048515932e-01
-6.158454510907328538e-01
-6.092577332693766001e-01
-4.673815997703910097e-01
-6.319409303631371433e-01
-4.561370160505100468e-01
-5.711366016080444696e-01
-6.780432961194581276e-01
-5.301506896878704911e-01
-4.917579866046896675e-01
-7.228187521268516491e-01
-6.604741089631901430e-01
-6.115918585630428783e-01
-6.903935073863634031e-01
-5.361100625459128688e-01
-8.386259530093890247e-01
-6.987692178008424460e-01
-7.144595482237390272e-01
-7.326327893046904460e-01
-9.008732957984388889e-01
-5.843643429345202200e-01
-7.095887901923576546e-01
-6.075401239693232203e-01
-7.243498158342184245e-01
-7.922475377122562001e-01
-7.605587037133935135e-01
-8.364750856537858104e-01
-9.622578787812630097e-01
-7.676579762589366140e-01
-7.641074559778584518e-01
-5.938217901366866780e-01
-6.089571435720364523e-01
-6.965563053772232394e-01
-5.140361053753966791e-01
-6.918453047071212447e-01
-7.529379549782513337e-01
-6.939051975128806005e-01
-7.886198089051962290e-01
-7.113728776075094462e-01
-6.764077068090146305e-01
-6.381676594354295240e-01
-6.297379032339088800e-01
-7.465874576733084744e-01
-8.577492039558576309e-01
-5.315474709718924773e-01
-4.664913748735644017e-01
-5.672306108299185468e-01
-6.813874839679132656e-01
-4.988523108430861219e-01
-5.501664561427740407e-01
-7.721791442635337344e-01
-4.608856355709169961e-01
-7.716292189524780465e-01
-6.138709261397521377e-01
-6.221875139664732046e-01
-5.750668448175602077e-01
-4.784418127712716240e-01
-5.817968968015105879e-01
-5.792295760340475663e-01
-5.292019791591721090e-01
-6.752704640120963386e-01
-3.769531767183006421e-01
-5.630488657646562922e-01
-5.887237186564069358e-01
-3.954691761544626427e-01
-4.637822868723397440e-01
-4.833360824854096016e-01
-2.402850103219268951e-01
-3.918805490639144518e-01
-5.026506337216334330e-01
-4.676555654826680675e-01
-4.355266918924016739e-01
-2.563329899493837494e-01
-3.154315626239435622e-01
-2.778522843487771232e-01
-2.990891023370349511e-01
-4.501838943903533341e-01
-1.643631474984410534e-01
-2.885691138432591729e-01
-4.121151172987466693e-01
-2.524721601062347998e-01
-3.278362372092339383e-01
-1.876465380256179261e-01
-8.374498406164287978e-02
-1.493183406778685329e-01
-1.506317288563437107e-02
-1.626667470439348562e-01
-2.334007516404023874e-01
-7.294800170980135501e-02
5.828604569383893930e-02
1.951275793119534585e-01
-9.855637291466304642e-03
1.015959850865992692e-01
-3.162797490000644751e-02
-2.701708485817480576e-02
2.612735804742519902e-02
4.278324637577153589e-02
-8.387782665319148956e-02
1.123654711505895909e-01
3.696918140805857678e-02
2.549260190758201872e-01
8.417839176362212905e-02
1.726871258915307072e-01
2.515523829431647318e-01
2.430700517900226565e+00
1.377646885266127885e+00
9.321179725872562605e-01
5.969868551321423356e-01
5.977692678449505470e-01
4.110481488749239132e-01
2.303259851480761733e-01
5.717728000506401287e-01
4.456274171800794215e-01
4.363423112874635912e-01
4.344881191453004998e-01
3.240736990673131479e-01
5.631990592427406073e-01
6.473450741967105015e-01
5.680732682421418822e-01
6.066816598957620599e-01
4.276361774652538417e-01
6.109548221602387752e-01
4.401750101848675989e-01
6.222787331009127509e-01
5.443161215774674488e-01
6.574483971279219130e-01
7.848477229026381563e-01
7.048859279684859258e-01
7.822695508687482757e-01
9.495812296060898161e-01
8.806437344248156940e-01
7.252104907002204781e-01
8.920738350513477410e-01
8.445467788481152427e-01
8.954000814759343063e-01
1.034297787618433384e+00
7.713608520115535772e-01
9.837295181984468950e-01
8.507055010653907789e-01
9.047073318793839025e-01
1.007858241790027254e+00
9.579383239046868059e-01
1.127597844896219392e+00
1.007366264569971248e+00
1.004192035950307149e+00
9.632694428816355181e-01
1.009178642469269693e+00
8.944905014595135873e-01
8.871623935723678134e-01
1.318784816466306964e+00
1.169292122220374930e+00
1.292877516098214663e+00
1.062827586387903089e+00
1.053276404152257317e+00
1.022216896325339519e+00
1.076645978544891191e+00
1.178695114524244802e+00
1.182230439910040953e+00
1.142406531506052536e+00
1.171725795010274629e+00
1.128683485731905689e+00
1.102183561181943716e+00
1.356405178813249623e+00
1.173702655436505760e+00
1.269378147963503123e+00
1.139213155540567568e+00
1.425371544232029164e+00
1.240251300024261649e+00
1.272610250026157352e+00
1.378305612334198127e+00
1.233551088908104498e+00
1.309680896374345149e+00
1.293962882935328240e+00
1.389420286382840652e+00
1.237136703574505781e+00
1.134280348420378726e+00
1.155080388647747425e+00
1.321659370614785445e+00
1.213669279815531299e+00
1.267242674526009472e+00
1.144211051159242709e+00
1.265786155346819486e+00
1.357968561261236440e+00
1.354014938569975124e+00
1.131579097533067069e+00
1.195123204522702931e+00
1.379057741048687724e+00
1.303429983803526815e+00
1.271991626303770717e+00
1.359959080209610649e+00
1.254711711653021533e+00
1.257983940404562517e+00
1.069943379208328160e+00
1.380171951165401145e+00
1.393374438471508547e+00
1.169479378936776115e+00
1.252682031871403145e+00
1.221826691373239404e+00
1.325102818393913529e+00
1.251251207045749325e+00
1.158572313060826309e+00
1.243940224555418972e+00
1.343211058631279098e+00
1.115754918623762304e+00
1.145281024540994785e+00
1.149234822154249436e+00
1.095665769174568149e+00
1.004467027445913319e+00
1.220312779955058380e+00
1.163432252212987184e+00
1.045984130793554678e+00
1.058835297002207687e+00
1.127699950830650222e+00
9.893507966116044106e-01
8.775891991001005810e-01
1.022754884838066092e+00
8.832858884751723094e-01
9.330188705818265316e-01
9.774643609821801471e-01
8.670671803038347836e-01
8.694129434468934603e-01
9.334949526617709603e-01
9.069699807915093670e-01
9.712226126919299984e-01
9.706919265361001470e-01
9.779132475893137499e-01
9.410633464117496016e-01
7.714538617714252755e-01
7.420976566373180816e-01
8.912566629092359971e-01
1.022309173124808401e+00
6.768354762121703283e-01
7.309831925730575497e-01
7.165161938234997363e-01
7.444152197818901806e-01
8.224261588041759108e-01
7.234144295601787622e-01
5.901621248489544724e-01
6.943131340113488648e-01
4.973143008248876451e-01
4.865215598315728585e-01
4.178809820912258721e-01
6.193401463502348214e-01
4.083327895670539887e-01
4.491082069873485461e-01
3.554056975921639494e-01
4.430503392467634582e-01
4.376268264920502582e-01
2.033296495564657358e-01
5.119658400804638632e-01
3.550096234913015514e-01
2.956010053136652882e-01
3.834775350200358979e-01
2.847463042549338574e-01
2.072121479034824132e-01
4.301041184980443077e-01
2.467130582334747246e-01
1.517473437323473284e-01
2.504033699264029411e-01
3.088358846099806820e-01
1.042060126976418477e-02
8.372476671629472400e-02
9.428505970170403261e-02
1.827105632813194880e-01
-3.923851675854671262e-02
2.246530753960779836e-01
1.466772682583774023e-01
-9.293494246687331040e-02
9.007532393511585855e-02
-8.732774458748877866e-02
-1.387360199831903507e-01
1.533031602418802319e-02
-2.575186769827075839e-01
-1.725482929501452600e-01
-1.682172528287801949e-01
-1.641642143558029177e-01
-3.501350673105150246e-01
-1.384456715910605262e-01
-2.979573700870016273e-01
-2.150123296702017295e-01
-4.087666363569960049e-01
-1.934404013014660029e-01
-4.332921949761524560e-01
-4.009862777707652870e-01
-3.392398245059689565e-01
-4.576604352688264377e-01
-2.247569673531998879e-01
-2.674102157266929902e-01
-4.675151876988073441e-01
-3.809598511868829140e-01
-5.497074494277763845e-01
-6.883697122241718702e-01
-6.289868939247058588e-01
-3.685592854201742430e-01
-7.198913160213273876e-01
-4.715070565338001507e-01
-5.317456526475931033e-01
-8.489859103735682977e-01
-6.577135553405007995e-01
-4.500101117725346933e-01
-6.402560163622568190e-01
-5.034005368544179904e-01
-5.440620973962455587e-01
-6.980132014062785384e-01
-6.471304902106246315e-01
-6.778562186875652928e-01
-7.825297743632319003e-01
-6.195357860416951246e-01
-8.911465229703203761e-01
-8.201199456972056989e-01
-6.834247538309038417e-01
-6.368482037367808601e-01
-7.342917093659950822e-01
-7.231680640318329800e-01
-9.202420661860530871e-01
-9.355239813840410257e-01
-7.989994893942590215e-01
-8.383820663977172849e-01
-1.039749665515445676e+00
-8.169479667843452253e-01
-8.455529047658204567e-01
-8.648858731265181010e-01
-6.870582310439679041e-01
-7.454948433391678231e-01
-8.859142498943107791e-01
-6.799257955834329126e-01
-9.085574722780224155e-01
-1.049917452394842243e+00
-7.710438970464472686e-01
-9.768197653882811915e-01
-8.786799257684430042e-01
-7.971888249508598534e-01
-9.650421569256818488e-01
-5.786297115071423747e-01
-6.939435788213098588e-01
-8.457402559305851053e-01
-1.198125234739881861e+00
-9.314396879758336523e-01
-9.345800812274974723e-01
-1.153049885146428588e+00
-9.289690145440326896e-01
-9.355527476042957424e-01
-1.024300464293590007e+00
-7.770072036801585202e-01
-8.574639717711094455e-01
-8.616271359173360844e-01
-1.033088435325410392e+00
-8.123549505722802433e-01
-8.284304735968117672e-01
-6.546758577097363530e-01
-8.003858327329104183e-01
-9.580059161084870656e-01
-9.058354534690901128e-01
-8.715926392609535389e-01
-7.218025240799630371e-01
-7.967427617244636773e-01
-9.326264850735175305e-01
-7.477113354236488707e-01
-7.119773437882506162e-01
-8.418833232299981484e-01
-9.813845665643162741e-01
-7.354104585407479355e-01
-5.964057224566741144e-01
-9.234759696826928543e-01
-7.732476626875904868e-01
-8.162006596857970253e-01
-9.761484933252837504e-01
-6.874491326808356284e-01
-6.407494851191187779e-01
-6.433357760353428656e-01
-6.351176335978828691e-01
-5.474271061841797792e-01
-7.387621688173955370e-01
-6.032404133273201463e-01
-4.246981778730974932e-01
-3.979773159300402652e-01
-6.278712742264129787e-01
-3.391319540324658766e-01
-6.951998169627784385e-01
-5.549679242015911340e-01
-5.978141288302114553e-01
-3.970943323513420053e-01
-3.345791958757630691e-01
-4.844504292778959442e-01
-2.891340651041465204e-01
-3.625770493074736422e-01
-3.358231023265955684e-01
-4.160556527807337535e-01
-3.484786659090627348e-01
-2.475002417556967094e-01
-3.451682194803951664e-01
-3.652560268001715515e-01
-4.201853996347702513e-01
-2.633409990362537978e-01
-2.496306161392211620e-01
-2.586793330586182327e-01
-2.894308883232921126e-01
-6.524024972837641489e-02
-8.221356886623382154e-02
-7.145122622437309612e-02
-1.756440103872330960e-01
-1.528043714789684149e-02
2.068762312962101557e+00
1.254295043009123312e+00
7.103770888249887339e-01
4.665169897299462631e-01
2.942005321825183484e-01
6.341764320831287660e-02
2.113553356831946936e-02
1.047477622000824449e-01
-4.372741194655692387e-02
-2.205101405312433205e-02
2.115493842977229089e-01
1.244003258797288097e-01
6.694279097329861039e-02
1.228036484119097160e-01
1.149352902703409396e-01
3.211696712961751299e-01
2.749701430986098982e-01
2.791287449007840427e-01
1.788842216320810086e-01
4.375160560681015109e-01
3.703446667703327311e-01
5.445563063168480378e-01
3.180274410225437665e-01
5.877589014711251947e-01
4.167163561420961226e-01
6.865892005985456681e-01
3.593503620149534061e-01
3.832678217352383232e-01
1.947069520045466295e-01
5.130586801778980188e-01
5.627561217371819247e-01
4.428643230907644002e-01
3.546511565599535509e-01
4.702882407011848009e-01
4.810424200212495838e-01
5.722351324610035483e-01
4.789980939531067738e-01
5.031188023781292262e-01
7.207937481733671659e-01
7.715361912060597627e-01
4.525401794337995387e-01
5.527954521207185667e-01
6.314604690185308122e-01
7.274534209431832155e-01
5.937374569016589110e-01
7.065632496474132385e-01
9.148369449291625655e-01
7.083192767581479865e-01
8.471463576753678337e-01
8.540845599896844664e-01
6.720575075741026527e-01
7.540166081370490714e-01
7.086506452483656293e-01
7.334764795587842556e-01
6.315690781071067184e-01
8.042019817121229819e-01
9.977415921055921011e-01
8.362248622652859176e-01
8.340253033473794542e-01
7.794638810727201328e-01
9.673150528526501812e-01
9.845661438978716706e-01
7.784565214073478900e-01
8.730873555500553440e-01
8.900565616243086842e-01
9.694154988671236373e-01
9.486027650593565896e-01
1.008725003721888891e+00
9.615545218092597102e-01
7.277875157233574255e-01
7.810561503692591279e-01
9.268795086681639317e-01
9.165982368855229989e-01
8.799794217662958440e-01
1.036034566546605085e+00
9.970019514410686234e-01
8.876239615844142561e-01
9.011572844823461104e-01
9.172197047644099488e-01
8.305159097175169869e-01
9.852275475833082163e-01
9.416946194100530576e-01
9.444686433557974992e-01
9.641602782339154798e-01
8.513323658898871438e-01
9.905027809880933010e-01
8.334932663915908257e-01
7.132640628557043172e-01
7.473739910307000134e-01
8.780394836486075105e-01
9.258077834214810675e-01
8.171716986542649774e-01
9.089277984070374128e-01
8.328041195697961641e-01
7.350316585877083586e-01
7.807627112226298571e-01
8.117356015549421766e-01
8.722182597834996498e-01
6.212651521554284351e-01
7.909246032244916513e-01
8.061375846599300177e-01
7.115039342157191138e-01
7.119281322806285672e-01
7.417542992750013608e-01
7.140697975377340301e-01
6.666079777004917384e-01
5.794812556776823831e-01
6.833362300616655505e-01
6.709398803880931572e-01
6.536714302812585142e-01
5.123398785249423382e-01
6.986213342081091238e-01
6.182315409882682689e-01
5.118375199415969856e-01
7.639928624545331282e-01
5.060004216763144269e-01
5.635626498152074282e-01
5.575080416253357374e-01
6.201293675007969464e-01
4.950026384577508876e-01
2.672364993774182240e-01
5.102312993577929889e-01
3.982543280723628287e-01
5.677088294077645703e-01
2.725567650772990347e-01
4.825560521357611377e-01
3.876233640702384520e-01
4.608377384313257497e-01
1.606408803540257946e-01
1.686913194765199686e-01
4.405338541419757115e-01
3.894495188302632416e-01
2.413496719389173206e-01
2.734078365167010860e-01
2.407312632250243334e-01
2.060678419853272658e-01
6.503964431372784294e-02
-7.248127617669791745e-02
3.011041295616062041e-01
4.651765200667626332e-02
-4.307208306801571518e-02
7.004867337186089504e-02
1.556554716418835915e-01
5.160232627498773095e-02
-9.494956032251483657e-02
-9.071876446155417717e-02
-2.845462773017339020e-02
-1.141855505319692987e-02
-1.242946792829301428e-01
-1.156455334130985918e-01
-5.705322069667721763e-02
-1.450006229439574912e-01
-6.356352471097789780e-02
-1.071381567638820392e-01
-2.198563473893753450e-01
-2.422163767462107431e-01
-9.101797132285102676e-02
-3.305717108334764731e-01
-1.056049964780912676e-01
-2.339617445489250991e-01
-2.688377444353881041e-01
-2.972959255971092674e-01
-3.772869091913205186e-01
-4.787581124634778806e-01
-5.546054852720291306e-01
-4.807835228221482016e-01
-4.154493578435553003e-01
-4.490773438215333035e-01
-4.335162093331411670e-01
-3.974786500436966463e-01
-5.405577952298370459e-01
-6.601313070316724430e-01
-4.214022587463118752e-01
-6.190626347485163050e-01
-6.987655360880407063e-01
-5.535983921297311650e-01
-7.605078083248950627e-01
-7.388937495511349596e-01
-8.419580621429570977e-01
-6.251638023036691916e-01
-7.586781482580734481e-01
-9.000382612888521150e-01
-8.237262754520824348e-01
-8.584511861401780131e-01
-7.850380604595768030e-01
-6.449760119150275139e-01
-9.798516214488341980e-01
-8.139747568038597780e-01
-7.593456444615958034e-01
-8.863781712349673159e-01
-8.438326693193057837e-01
-9.600186297062992535e-01
-1.109369087694009881e+00
-1.102870471039798517e+00
-1.111571923104025084e+00
-1.073129365021153081e+00
-1.028522748244756757e+00
-1.088369604486446596e+00
-1.006961744854095731e+00
-1.076339120653418746e+00
-1.049604105919696551e+00
-1.236526588341828825e+00
-1.209000275259242807e+00
-1.092679960378124537e+00
-1.192696367064696172e+00
-1.025339116195399303e+00
-1.095283278448578201e+00
-1.359703105021371261e+00
-1.298710565261500527e+00
-1.153404438747740457e+00
-1.232221687410931521e+00
-1.071135903493709796e+00
-1.336829829699433425e+00
-1.327866919153817937e+00
-1.352533901086227841e+00
-1.436669565442641350e+00
-1.216815824619282393e+00
-1.312477377205291118e+00
-1.279368612331957644e+00
-1.152710535979302620e+00
-1.121402677459588215e+00
-1.295654065725850845e+00
-1.154211254029973821e+00
-1.336782376505590619e+00
-1.248667735226978381e+00
-1.244044204396675957e+00
-1.155972822998182936e+00
-1.189311553163090007e+00
-1.266646721325480840e+00
-1.142617341467579317e+00
-1.289078067892498902e+00
-1.242015693098158957e+00
-1.254305085287638288e+00
-1.490114145250799771e+00
-1.503573441137755040e+00
-1.161038392344857728e+00
-1.182539448666678705e+00
-1.316005492816358702e+00
-1.262951856047829002e+00
-1.271721820243361112e+00
-1.235326493847380025e+00
-1.231004478073340236e+00
-1.253280171214604888e+00
-1.281474115340885289e+00
-1.192876050130242449e+00
-1.332794698374238695e+00
-1.274840198765102794e+00
-1.300161731660878228e+00
-1.241810757912573893e+00
-1.178853316741358848e+00
-1.312213858374292830e+00
-1.341434903047747484e+00
-1.197496395146315562e+00
-1.282801219291814787e+00
-1.038220260021515351e+00
-1.202416169042823446e+00
-9.925040483839195904e-01
-1.091015325292693960e+00
-1.108798348230711772e+00
-1.095160646805761973e+00
-9.229469662828244658e-01
-1.009335023038774315e+00
-1.096758928813389433e+00
-1.029691779452918565e+00
-1.128645968108487940e+00
-1.112298695890735933e+00
-1.011530277919043153e+00
-1.010539615980886818e+00
-7.057872219419690785e-01
-9.217673198190596828e-01
-8.661309002419861347e-01
-1.032083083125949985e+00
-8.701541751813207659e-01
-9.716350894433224417e-01
-9.428519351637277834e-01
-9.118935396174562280e-01
-1.001516349702831876e+00
-8.670491013478121012e-01
-9.320919887518726021e-01
-8.665554700364477281e-01
-9.043173501538628312e-01
-5.645520812058703042e-01
-8.100296904185860791e-01
-8.018201659152387473e-01
-7.573028689511900335e-01
-6.012896308764743569e-01
-7.126881483606738454e-01
-6.763558658920966193e-01
-7.272329920219815502e-01
-6.473025250257120611e-01
-6.161158685634586796e-01
-3.981713313607856963e-01
-7.777375848678236281e-01
-4.705491796704009411e-01
-6.403742600922315287e-01
-4.656978695062808926e-01
-5.093112672671882279e-01
-3.378590468547736370e-01
1.580841588708952639e+00
9.995468774817530822e-01
5.492913707581779104e-01
6.280566203482401688e-02
4.076619704860079407e-02
-3.866300783562921506e-01
-2.633859597683387288e-01
-2.477491130308620282e-01
-2.950645725659376550e-01
6.563067565369784528e-02
-2.718647099184965943e-01
-1.653914535081792148e-01
-5.290088350243171700e-02
-6.492787934079023715e-02
-2.786233447377329808e-01
-1.624764512435945829e-01
-2.751181700689923071e-01
-2.345631474261922755e-01
2.451033092897550447e-02
4.988826077819127902e-02
6.608374868491194432e-02
-1.324911747302089382e-01
8.427200362017880919e-02
-1.448081421463670859e-01
5.186591252946677610e-02
1.565377081908206902e-01
2.064032517643672460e-01
1.190079009591517162e-01
8.119191125091988759e-02
2.919662845422361652e-01
4.182566510139287264e-01
2.923571901455560562e-01
5.165097648033534217e-02
2.207778593224253849e-01
1.820691844519579661e-01
1.758906068505674825e-01
3.075955241118616956e-01
1.619378337357542941e-01
2.967426126288223998e-01
4.910909701829616614e-01
4.998919505994139367e-01
3.428036947507779875e-01
4.024204052845848922e-01
4.781681907747352689e-01
4.436603167299880690e-01
3.483834132165851138e-01
5.445114887988886654e-01
2.801250040934022412e-01
3.773139575903498022e-01
3.935614468250117071e-01
4.599019380264358636e-01
5.416002606668287589e-01
5.861612671664250263e-01
3.335284033100684997e-01
4.880433055867589021e-01
3.930555807999685514e-01
5.109546417196321189e-01
3.552234344222646722e-01
4.966708359249140114e-01
6.651816324448038831e-01
4.799778853363226294e-01
5.863999459415524251e-01
5.589586973279726534e-01
7.467773274725042487e-01
8.517674048639890527e-01
7.119674157986124463e-01
6.340082837666826121e-01
5.717092494522160173e-01
7.576350788252268487e-01
7.251234477809538337e-01
7.781116340016902555e-01
6.354906109200187947e-01
6.866046092156845582e-01
7.232162865493596549e-01
7.534131078904594547e-01
6.019345817181854796e-01
8.059689843240770424e-01
7.756424838931932353e-01
7.878326452920021428e-01
7.920730098553842025e-01
5.906162213538479477e-01
5.741107318414512273e-01
7.845236742827241816e-01
5.882972859313095881e-01
8.275284330610448436e-01
7.273453079970408908e-01
7.631982669022924215e-01
7.289264645503072959e-01
9.470270980367193614e-01
7.344081013229074584e-01
8.856232713174136961e-01
7.878549755420206635e-01
7.638041410159958078e-01
5.973166002597999347e-01
6.093996794905407466e-01
7.150745047639297525e-01
6.324977783900660455e-01
7.871521847616658185e-01
5.509519977046382078e-01
8.084698123692533045e-01
7.313283922149071969e-01
7.211558837961754564e-01
6.506702468886320645e-01
5.220686230626203628e-01
5.812685234305386972e-01
6.582094308938273297e-01
4.800340955737063542e-01
5.382450243185270544e-01
5.030212688621362727e-01
4.966640518550676786e-01
5.573131194090664708e-01
4.452555274499518934e-01
4.610037694519200646e-01
3.077873349721786944e-01
4.986810407700125181e-01
4.539876554619971527e-01
4.788383055850250480e-01
4.638252771040330957e-01
6.106601412719450117e-01
4.336365391872210595e-01
3.565895216849996885e-01
5.507568836768774734e-01
3.088819032748959525e-01
1.980885394581632930e-01
4.233768799395493110e-01
2.432200110326909748e-01
1.771883767955010625e-01
3.956089992569118974e-01
1.450436158023781508e-01
2.463411807330331271e-01
1.599116983476079612e-01
4.872961855209593240e-01
9.955429196933326952e-02
8.351409051557345808e-02
2.393168587053977059e-01
2.682885371055061530e-01
5.109787703502477463e-02
2.982030801806337394e-02
1.315526666981099713e-01
1.583278405909396280e-01
1.186449148568052836e-01
5.473607179268312473e-02
1.176640924040033842e-01
6.783400420600933789e-02
7.193128176537444407e-02
-1.110490643426412655e-01
-7.253329345061789238e-03
-1.490439933994904820e-01
-1.860326610497259059e-01
-8.737779640275750159e-03
-1.926096959705085876e-01
-2.721267580945900821e-01
1.685116542866044176e-02
-1.050979576451762931e-01
-1.221888563645092407e-01
-1.903879490776555217e-01
-1.189418629359637047e-02
-2.267346719171435543e-01
-3.822861829468140460e-01
-1.209884742742701469e-01
-3.184754267690853013e-01
-1.088564498023781857e-01
-3.736348593043480326e-01
-4.727699311342488109e-01
-3.345766601132498796e-01
-4.575046908563684123e-01
-4.207700226756099782e-01
-2.163983213054521959e-01
-4.958469438235734161e-01
-4.966350960844421181e-01
-4.730917963955246774e-01
-4.840339218784351916e-01
-5.639188849520695435e-01
-4.728251762188206975e-01
-5.086688799820386908e-01
-6.450582918469064397e-01
-5.891191497988095271e-01
-7.008532510037852603e-01
-5.926444370445965726e-01
-6.248424712369989864e-01
-6.729869302707880419e-01
-5.588118679410619682e-01
-6.628559113698127003e-01
-6.057094578178925381e-01
-6.119909442578025383e-01
-6.297388684297418049e-01
-8.245736067412284820e-01
-7.685097649939862663e-01
-9.583116884602276286e-01
-7.995082793986807435e-01
-9.749452042480191150e-01
-4.881043075941742804e-01
-1.034571210433166577e+00
-9.394983686464221107e-01
-9.706393828660534462e-01
-8.155162516706769837e-01
-8.248559427019617196e-01
-8.696077704291308441e-01
-6.746846691837560250e-01
-8.814241547018522027e-01
-9.582312179075775926e-01
-9.267364588634129374e-01
-9.656206036598815601e-01
-1.065050762057350164e+00
-1.085178322331376677e+00
-8.087313511985722014e-01
-8.373935827135695620e-01
-1.030493091050091348e+00
-1.048857449426810806e+00
-1.241300973564341215e+00
-9.407391487482510417e-01
-1.042001080261547141e+00
-8.660101049674995277e-01
-9.546903746937490665e-01
-1.181697424282585951e+00
-8.630152259885025545e-01
-1.107358384625430014e+00
-1.180911656008198030e+00
-8.892958083867942287e-01
-9.954249493564515383e-01
-1.131909751137099462e+00
-1.111717085112093217e+00
-9.632351803269785240e-01
-1.188966567443952016e+00
-1.279069574876906090e+00
-1.162155820608644641e+00
-1.185307890950828558e+00
-1.282861107368304943e+00
-1.097379382347878130e+00
-1.095762681884667300e+00
-1.198615256425969333e+00
-1.229102463141031443e+00
-1.059714857675741362e+00
-1.163817518526123918e+00
-1.083708420700419728e+00
-1.238430679820325730e+00
-1.289690139608647756e+00
-1.117859510407481105e+00
-1.074648826880678643e+00
-1.048627277315487216e+00
-9.793717812005624523e-01
-1.186070505296277000e+00
-1.010267436052004530e+00
-9.198689029526622152e-01
-1.023303593759809615e+00
-1.078217743417457575e+00
-1.143907347272117958e+00
-9.524735734925511288e-01
-9.864555950431294074e-01
-9.792119890333453869e-01
-1.105977518504670076e+00
-1.055669834897423831e+00
-1.097439188493345430e+00
-8.368646336125641350e-01
-1.018427256649262036e+00
-9.428074544804677659e-01
-9.968662650932363922e-01
-8.205069801625639592e-01
-9.107366881787402058e-01
-7.885714380326293016e-01
-1.115717660885987561e+00
-8.996890385441960181e-01
-8.504050486559658895e-01
-9.313799681151524457e-01
-7.661743803021922039e-01
-8.061961245724512670e-01
-7.969898773720378582e-01
-6.768021299348639941e-01
-7.294695946465957759e-01
-5.692942236059906902e-01
-7.355471997393919770e-01
-6.949902579906080957e-01
-6.407722776522413177e-01
-6.270213014194588874e-01
-6.462538753788457102e-01
-5.348328958581519688e-01
-7.381236040047216562e-01
-6.142436033637732606e-01
-6.705782112305290754e-01
-6.489565566481878545e-01
-4.853153878644834163e-01
-5.002554022440079962e-01
-3.895369433965114592e-01
-4.538804855753736378e-01
-4.676258129610175174e-01
-4.078208376917338285e-01
-3.207786876617734206e-01
-3.025128814338285954e-01
-3.726228385444778080e-01
-3.624641225020066027e-01
-3.734583130954947650e-01
-4.457672039631360716e-01
-3.452123681712988001e-01
-2.773659454802634983e-01
-3.800244922427882810e-01
-5.760152532678122772e-02
-1.449122088590584778e-01
-2.163648091905621129e-01
1.807796185108194953e+00
1.050107217691721218e+00
3.724171417275798923e-01
2.980825300413341150e-01
1.747602893611010511e-01
-7.000979452439684558e-02
-9.588534355462804970e-02
-5.763905285964562863e-02
-8.927691322215028369e-02
1.042037079772155511e-01
1.078268333138474866e-01
1.404242503478102533e-01
1.783541555305736548e-01
2.735616771877506792e-02
5.613237868004332387e-02
1.964133917656478157e-01
2.262002680362825702e-01
1.003068894136062289e-01
3.083675007805952162e-01
2.884740362272995573e-01
3.052223435817850161e-01
3.070699766576581724e-01
2.534459718129438155e-01
4.275084139263747307e-01
5.764073157960561966e-01
2.644195118805459654e-01
3.608178517421970488e-01
2.902114803674222809e-01
4.711942181474538804e-01
5.258040038682543216e-01
5.278782008356107669e-01
4.728353111100290773e-01
6.722686691681585280e-01
4.820493578043800742e-01
5.740076239551031856e-01
5.989299532095024858e-01
5.835860010318202340e-01
6.290231459272801473e-01
9.015308629751533909e-01
7.718883436139305498e-01
7.264826984901560092e-01
6.350161607536018993e-01
6.071930484718894849e-01
8.411663871285517402e-01
6.666422181952749160e-01
7.882952051045505337e-01
8.696624275136538573e-01
9.596751095271031096e-01
8.518566643195366606e-01
1.054958764025932139e+00
8.098308768189639295e-01
1.080882503017802643e+00
9.699152745991052038e-01
1.032105782028473584e+00
1.007774810726112413e+00
8.378388508151932701e-01
8.342546727462483158e-01
9.314695502086561829e-01
8.807891782859222918e-01
1.152655005487226658e+00
9.318571213574307066e-01
1.126599281308068523e+00
9.711097855164203541e-01
1.069759785576724465e+00
9.369502732729104721e-01
9.249903577068366856e-01
1.047672104152480355e+00
1.155855435228303474e+00
1.026765694612264301e+00
1.235584098448797796e+00
1.001065234211424348e+00
1.082363682003206096e+00
1.109001849762868641e+00
1.184938491490033163e+00
1.141714735786390378e+00
1.216913693847114786e+00
1.075397749619026566e+00
1.007682647377933671e+00
1.099985718067398199e+00
1.114417738412072367e+00
1.176765544686940279e+00
8.977574550091673711e-01
1.124680147220172621e+00
1.126753216788064726e+00
1.098903600047040907e+00
1.045731576547910491e+00
9.990280017418851077e-01
1.102619695964228708e+00
1.154162868587904622e+00
1.065927829723913867e+00
1.046058659505343824e+00
1.007315914625077191e+00
1.090515271564755917e+00
1.122704975750799195e+00
1.128008837162330469e+00
9.509998105103202315e-01
1.230222449704182264e+00
1.053674490334681080e+00
1.201309930465354947e+00
9.090474323482108376e-01
9.530741857239186654e-01
1.062992865994428326e+00
1.062968104790763313e+00
1.131876246799774721e+00
1.058858947012896623e+00
8.473848361498976800e-01
1.067076686844935951e+00
1.109004391069212225e+00
1.106950797076837523e+00
9.444112984082356776e-01
8.614640046991068889e-01
1.062191326602977215e+00
1.032205848852926211e+00
8.436840651454047268e-01
1.078766499761611319e+00
9.600670505208138694e-01
8.540703788361793114e-01
1.087312001474781464e+00
9.225330297936741308e-01
8.670672048522737319e-01
8.330115567116391784e-01
8.914832495490123687e-01
7.744857441609608317e-01
8.665150271493586853e-01
9.669460230302335813e-01
7.178641547791768662e-01
8.819887061143110163e-01
7.593093827601933299e-01
6.564095139528636214e-01
6.936179817822059057e-01
6.677845965749213963e-01
8.309276167617505315e-01
6.285052753925335356e-01
8.569862524321383290e-01
6.796369526716222742e-01
6.583891562618360282e-01
7.052916719230987175e-01
4.400596074671664359e-01
5.991981484700236171e-01
5.295445309466182415e-01
6.675675287605686847e-01
5.580947506969786698e-01
6.973717044583275237e-01
3.755221707015337085e-01
4.641069117272297317e-01
4.267821646799349056e-01
5.388909783456633518e-01
4.307283264695726532e-01
4.055967047868855313e-01
4.025392937201325849e-01
3.216455784645913529e-01
2.491906833175211999e-01
3.574319232193147178e-01
4.855741473705114108e-01
3.210234816166013250e-01
2.096023974325392780e-01
3.742783043061243542e-01
2.897889184816292429e-01
1.555892769714830592e-01
6.249009659257703797e-02
2.057429696848025458e-01
1.829175967313738660e-01
1.022558974147807359e-01
8.662198442432442191e-02
1.486390133158907167e-01
1.692513344492042882e-01
1.365118527115065650e-01
-6.460070297793227279e-02
-1.108418063170288209e-01
-2.133264108236098203e-02
-7.037547667935334372e-02
-1.495917040022542444e-01
-6.736801388549835956e-02
-1.147747944093467087e-01
-2.516603892158526534e-01
-2.273973295130122807e-01
-2.309535255588411329e-01
-1.176565960575463032e-01
-1.943978073695961095e-01
-1.999838704687098290e-01
-4.222282121665184573e-01
-2.758476951081776929e-01
-1.986963550660434952e-01
-2.114066675727371003e-01
-2.088195650078724652e-01
-3.792515046962033898e-01
-5.429369508236374653e-01
-2.512969479882962154e-01
-4.062112606876182030e-01
-5.557273307656666050e-01
-4.839938598129239766e-01
-3.434221890012711942e-01
-3.051496908236264183e-01
-3.123361450526390692e-01
-4.623963186302431083e-01
-4.142677761039957329e-01
-4.848847484434901101e-01
-5.061082639343504885e-01
-3.503499286872257534e-01
-6.489914494379757093e-01
-5.400987605599090191e-01
-5.553894390349788379e-01
-5.737913133056774528e-01
-5.350731266222832350e-01
-6.234446679522106516e-01
-5.761521945732701599e-01
-5.644998627174303563e-01
-5.708900539807897356e-01
-6.359497008742966973e-01
-6.390545240088412182e-01
-5.899774439775863355e-01
-6.119092368545449023e-01
-7.236311542293024646e-01
-5.135406504043968923e-01
-6.414731471833071685e-01
-6.267286368461665313e-01
-7.182136366931244353e-01
-5.763066804273865307e-01
-4.545308905007272582e-01
-8.107959342767415700e-01
-6.344214226227221642e-01
-8.410872087429892563e-01
-7.156080746135198289e-01
-6.752827742400941968e-01
-7.613021856867313586e-01
-6.142959217696922769e-01
-6.720675713005452856e-01
-3.868522444968349738e-01
-8.015632177591531793e-01
-6.885685447890229627e-01
-4.768288671704026260e-01
-5.735744338426692623e-01
-6.676752637181195826e-01
-5.450144099615048532e-01
-6.756763440688309252e-01
-5.701784643326581747e-01
-6.560467809383883075e-01
-6.819393433335813048e-01
-8.148380068000299348e-01
-4.923572842038192454e-01
-7.806909084578017577e-01
-6.032801991577046996e-01
-7.707725115105428237e-01
-7.667591281675800730e-01
-6.746981213072245076e-01
-8.585744429875488137e-01
-6.362781035438891397e-01
-7.292405272980745368e-01
-6.404439762069533693e-01
-5.073672272716727161e-01
-5.558847123398911183e-01
-4.904417109757097659e-01
-6.142825445479210833e-01
-5.884941847346260024e-01
-6.581152313424897260e-01
-4.925836858097911719e-01
-7.228695803215214877e-01
-5.634608604381281527e-01
-5.009030865786158193e-01
-7.706186577147902117e-01
-5.155955595149623871e-01
-5.979471781749531312e-01
-3.396411484420954752e-01
-5.667944548101878643e-01
-5.516525354926409275e-01
-6.297472181944038239e-01
-3.211745298624798517e-01
-5.216985439587621398e-01
-5.874779220442882810e-01
-3.995181446059877239e-01
-3.310482142820855844e-01
-3.012023286808443445e-01
-5.978333060537525112e-01
-3.844958460111824738e-01
-2.293888428150440140e-01
-3.936325425301963610e-01
-1.963249095276675960e-01
-3.743694310048534257e-02
-4.777802420922689919e-01
-3.167363610033063770e-01
-4.322895153208096142e-01
-1.323914413896381537e-01
-4.175968995782436410e-01
-2.401821768946501012e-01
-6.699417155544241942e-02
-3.343327203852530793e-02
-1.082899609481552394e-01
-1.884161216022805507e-01
-9.040626730985024118e-02
-1.816204472844953066e-01
-1.156406325988382361e-01
-2.041966214870629681e-01
-9.804379044923459963e-02
-2.703153173305400392e-02
6.732012181397007550e-03
6.900052345400663201e-03
3.161953333044913161e-02
1.261416947567436109e-01
2.000420514305254471e+00
1.171894964668956263e+00
7.274431808582625392e-01
5.701844965248682451e-01
4.839014931645238549e-01
2.832035361972528587e-01
1.814851644602146208e-01
1.657969805330493651e-01
2.788100473442557958e-01
2.184373568561676082e-01
3.584193710736729432e-01
4.061705141944932373e-01
2.786943528530922420e-01
3.952199369023789433e-01
2.900193411469635940e-01
4.497272322903888564e-01
6.048555335917228382e-01
2.609658732502704304e-01
4.738697722585445415e-01
3.068807172042037346e-01
7.190996914972532794e-01
7.030572015335480041e-01
5.972456812191581088e-01
4.632914656112027130e-01
4.636121798422335738e-01
4.641360608982141311e-01
6.904631263271600039e-01
6.435364552615219225e-01
6.994424572025035314e-01
9.518752809199071407e-01
8.918592582245747913e-01
5.899256130176913082e-01
6.914122577998749186e-01
8.521341095363460516e-01
8.803721837521650828e-01
8.268540635792803739e-01
8.236218500915258867e-01
8.507196947644630747e-01
7.710318601246476389e-01
7.778957416467718877e-01
9.233105501359876177e-01
7.575737825277630844e-01
7.978718899600345527e-01
1.107440540992087774e+00
9.332881306464075877e-01
1.060951765981901662e+00
1.122171941556557417e+00
1.081091539046034056e+00
1.006668257652154841e+00
1.056084674361253306e+00
1.053448248069648541e+00
1.071174293575634762e+00
9.587386381698630444e-01
1.058565090607644033e+00
1.155185187137079961e+00
1.095579256094163956e+00
1.084343279137977234e+00
1.121845176258533971e+00
1.079960521397291595e+00
1.037605735230824555e+00
1.359773310384193357e+00
1.256855277776872226e+00
1.149097402852862215e+00
1.130009132265984428e+00
1.460084003235425198e+00
1.316506117262871589e+00
1.280931723561849145e+00
1.075938919206844036e+00
1.143368761783461363e+00
1.262067719408532129e+00
9.744036805620548414e-01
1.316396758276560552e+00
1.440560039177507079e+00
1.185011964428816178e+00
1.311648030628155714e+00
1.250800581986460047e+00
1.173232463154102012e+00
1.131134690462117565e+00
1.338173923786249775e+00
1.524358190604920615e+00
1.415547072956802266e+00
1.175977047221491656e+00
1.318839375127209834e+00
1.253828998687022800e+00
1.233658821507366721e+00
1.308283159023320819e+00
1.262400760442696779e+00
1.221745299806881624e+00
1.191294178011699900e+00
1.177611173649996124e+00
1.472790114858355759e+00
1.225905795333830595e+00
1.106231150024394649e+00
1.406221539800694531e+00
1.324998350198373531e+00
1.169509519427109234e+00
1.163157813037981381e+00
1.046139586647187869e+00
1.182121956337661706e+00
1.227060427777572071e+00
1.095447478503108529e+00
1.371242193462091086e+00
1.319841739965834426e+00
1.234188821511112311e+00
1.220447223261991621e+00
1.075078695572518894e+00
1.107498074753715755e+00
1.236212710030872186e+00
9.596977662250412155e-01
1.004999348537303883e+00
1.125017292449631112e+00
1.127386315095560088e+00
8.776093453150727308e-01
1.125754660905688098e+00
1.061135061272624247e+00
1.073259305683778253e+00
1.131865755738003188e+00
8.769978700959031315e-01
1.074961898742746946e+00
9.034636669297503309e-01
1.076186816526112588e+00
7.759010478289913859e-01
1.008928920774323501e+00
9.803862418493413111e-01
8.109302871699912707e-01
8.197266829930468512e-01
7.696617129427698600e-01
9.673813127470602957e-01
7.431891803117806061e-01
8.634813215343661863e-01
8.217566134227070052e-01
7.527968358931407256e-01
1.039462923291670116e+00
7.960330338222630919e-01
6.879412212302734586e-01
7.417478515712248033e-01
5.753607257004459408e-01
8.752569600682120754e-01
6.522854664892551169e-01
6.053342991421838404e-01
6.732861067729580817e-01
6.311919891499787605e-01
7.133916966252802361e-01
5.412287657688887865e-01
5.061372855296433215e-01
4.494804749729728321e-01
4.689649655908741943e-01
3.158042789823690688e-01
4.837020310672123791e-01
4.735213803627252860e-01
4.697772800745699806e-01
3.923092845595705924e-01
4.256916233882031553e-01
6.582297435782128447e-01
4.841430142795405400e-01
5.593041302505755707e-01
2.484416181124285972e-01
4.058488417483477884e-01
3.580695337896106500e-01
2.326029157764469835e-01
1.707809177468019302e-01
2.019500463648097321e-01
1.575456426151911060e-02
2.777480104179674836e-02
1.137047148095843563e-01
4.894907094437394440e-02
1.403905126952420257e-01
1.625448276671675463e-01
-2.111328785261570168e-02
2.454057298771837037e-01
-1.328682488220548075e-01
1.652552462193879190e-02
-8.245986780145404815e-02
-2.393588672822283825e-01
-2.717560139405350017e-01
-1.883602602422368433e-01
-8.098258674983316308e-02
-1.893555845821117134e-01
-2.511496540591231508e-01
-1.984620827267042087e-01
-3.012395259766816880e-01
-1.483994738512132150e-01
-3.501440567527620562e-01
-2.931623856155746166e-01
-3.918168920827465596e-01
-4.479564963584293791e-01
-4.827699304185187890e-01
-3.170343863806079909e-01
-4.424888344142216545e-01
-4.618679573029026431e-01
-4.517624314353906323e-01
-5.547036058668721736e-01
-6.688168863200952829e-01
-2.708503740707375873e-01
-5.017720276113132316e-01
-6.770928020994773089e-01
-6.375092490103863030e-01
-6.040790862143692319e-01
-5.633223913618022882e-01
-3.103457553522113166e-01
-5.204136680447137842e-01
-5.722402262900314618e-01
-7.929811543803709784e-01
-6.913010683539038137e-01
-6.837203640477746980e-01
-4.936666362941096731e-01
-7.398080447718358155e-01
-7.742207251120239997e-01
-7.912313297588671190e-01
-8.279672616748097180e-01
-8.114156846652731403e-01
-8.710135516773234166e-01
-6.751253903458604988e-01
-7.724883280371042105e-01
-7.715757072002188410e-01
-6.312247077826441677e-01
-7.034290441936201788e-01
-7.719855992928070787e-01
-6.636727154257748840e-01
-1.024921952140957826e+00
-7.257779679958453745e-01
-7.367146519926508486e-01
-8.076127511854777064e-01
-9.428379244974440798e-01
-6.064391424227002503e-01
-8.334007263995801829e-01
-7.815478944353453361e-01
-1.006458756389801534e+00
-8.010516918892778282e-01
-8.112520232197418801e-01
-8.181370583380265238e-01
-9.817343633379587153e-01
-9.288029134697338707e-01
-8.280716386143898156e-01
-8.763757729878683955e-01
-9.831636710259319401e-01
-8.544713560152872311e-01
-7.892944047452191692e-01
-9.914992478789567132e-01
-9.682669853426750795e-01
-1.100215086857421865e+00
-8.108484275659377793e-01
-8.668330983437674275e-01
-8.875672305795586636e-01
-8.585614729872330653e-01
-8.736910830108565174e-01
-8.643036599802313980e-01
-8.887636639712446218e-01
-8.433532049530176877e-01
-1.027215596819771370e+00
-8.583119489644499556e-01
-9.289451587297333779e-01
-7.250375943443332361e-01
-8.949707449133339487e-01
-7.780703052758650706e-01
-8.594624156798125192e-01
-8.581897107847705763e-01
-9.320560973295524132e-01
-6.394345726608149372e-01
-8.674788028275405294e-01
-8.220304610970419201e-01
-7.432011257399869786e-01
-7.223874623671177053e-01
-6.944643268534261837e-01
-7.758616537120468504e-01
-9.631153674757139127e-01
-8.982282588895108555e-01
-8.793065000470973169e-01
-7.882553824484705984e-01
-6.781075632498051453e-01
-5.820139442364011817e-01
-7.088514260105573950e-01
-5.814091606651086153e-01
-5.170768696831187228e-01
-7.743974636315691384e-01
-6.717495484730908739e-01
-6.445116242629266301e-01
-6.038321646092688066e-01
-5.960086594309182972e-01
-4.988298623611608917e-01
-3.923037899176510246e-01
-5.438533160196088456e-01
-5.301108784396759699e-01
-4.572312287610851844e-01
-5.785668187279611185e-01
-6.154055215992166872e-01
-5.946241381478656329e-01
-3.543076657884680625e-01
-5.218712923919244240e-01
-4.778921749436357280e-01
-4.336275250942523973e-01
-4.234286936639291565e-01
-4.371048746576084998e-01
-4.122172089924754368e-01
-1.410906311351625142e-01
-2.863823183173291875e-01
-3.729390762139335180e-01
-3.903853303114220852e-01
1.812923073770924542e+00
9.982846404247637251e-01
5.947684329629330247e-01
1.702773842569186291e-01
2.208492240480750546e-01
-4.356079821688335629e-02
-2.164608356653244803e-01
-4.507422695002349239e-02
-2.380838955555531627e-02
-2.426283345773455613e-01
8.428517291050605098e-02
1.054788894722229753e-01
2.324462411013222263e-01
-1.906051945500674416e-01
-5.692016971393428632e-02
-1.250621342492187760e-03
1.520429036598107131e-01
2.115435845027036632e-01
1.542055330570633875e-02
6.161100032133555449e-02
1.682137085547838196e-01
8.990732441035244327e-02
2.121790782544477338e-01
3.412914338938157766e-01
1.036844974224435389e-01
4.807005221428722330e-01
3.473808938348464381e-01
2.559471054167771764e-01
4.632783794803081445e-01
2.624005220041930597e-01
3.822966263408785759e-01
3.537180500079450951e-01
5.036954069278641866e-01
2.433046583391048623e-01
4.037153302268655097e-01
5.182184733902447382e-01
5.675076272957155776e-01
5.923346561530919985e-01
3.990744230326005448e-01
4.080326761094691945e-01
4.103455165099626489e-01
6.105196160602953670e-01
7.656702560855436213e-01
5.506150802926460530e-01
7.441018804111426688e-01
7.066616877726148438e-01
6.544866362548007466e-01
5.032850868782231535e-01
8.202480069218416325e-01
6.766253468060312581e-01
7.185194639122394200e-01
5.927325152597930913e-01
7.355259222328839330e-01
4.816264924440991635e-01
6.990082165490237864e-01
7.474839719568919794e-01
7.067899183538844943e-01
7.436515169226330935e-01
7.021156294577370893e-01
8.798961709345549664e-01
9.635614429042955731e-01
7.748602803509790915e-01
8.051244331377159780e-01
6.039396090400395156e-01
6.274664672071583738e-01
8.498040581237604751e-01
6.576226070440404081e-01
9.258160484009443358e-01
7.328711651856685272e-01
7.344065929535629200e-01
8.124465112685594903e-01
8.453360597374142138e-01
8.575792826512356193e-01
1.043391395945729272e+00
7.626987582755802020e-01
9.966240242957881135e-01
7.416390079399806101e-01
9.239626180525073451e-01
7.894022349658077475e-01
9.327777485447590333e-01
8.334393817393244142e-01
8.200760611177220216e-01
8.108300012557198011e-01
1.027711303083474803e+00
9.332774836002946106e-01
1.074551562242446856e+00
8.102276688151019979e-01
7.864297180835095880e-01
9.098256155888595487e-01
8.882990562827485226e-01
7.306784691866323733e-01
8.010231902513480495e-01
9.654000707560375094e-01
6.737699194154421756e-01
8.607259238192377371e-01
8.079165505443901552e-01
6.872433617739766021e-01
7.721464323439615196e-01
6.325722946044363137e-01
8.421938674899193122e-01
7.962229482308764705e-01
7.995482311849614332e-01
5.967033330935231916e-01
7.683989324490685391e-01
8.463729562088370129e-01
6.691520385525275838e-01
8.288528717946265223e-01
7.331968483962328920e-01
6.909308431775602610e-01
7.909928629640462505e-01
6.946684878061922808e-01
6.337909265733320252e-01
7.860527279474909257e-01
6.123619236180102288e-01
6.518829435996343902e-01
5.087521022603935794e-01
6.180569573996772537e-01
6.173422402073721615e-01
5.445352942230184956e-01
6.654058573131635956e-01
5.443345415648666030e-01
6.287692423604045455e-01
6.803522019115116892e-01
5.390316681356920325e-01
5.190511323731178406e-01
6.407992854669817273e-01
5.645484459296454816e-01
5.751934772805711304e-01
2.861887929721176338e-01
4.936072577281312435e-01
3.942232162633043657e-01
5.185491367454044820e-01
3.954645108327384251e-01
4.674625795643834736e-01
4.908077571709555387e-01
5.738175008276931166e-01
4.521233288133901240e-01
2.751021572370957458e-01
2.833387059416507814e-01
3.659422485936612013e-01
3.836147496829090953e-01
2.138953190834528006e-01
3.055128806655083573e-01
2.198047158425235625e-01
1.000058912302523445e-01
8.365112688117219697e-02
6.366293409313993068e-02
1.956868186042957647e-01
1.893192923490960855e-01
1.374820224638276245e-01
-6.176621984234380303e-02
-2.682751824777079158e-02
-5.167006576507945925e-02
-1.798887587074008976e-01
-1.187619675819411580e-01
-1.148455747735805110e-01
9.339928556532482717e-02
-3.005060008925682369e-01
-2.917478597265864559e-01
-1.603547312606130038e-01
-1.393588604183620960e-01
-2.224262553022420819e-01
-3.937921763056122515e-01
-2.089553849371205418e-01
-3.018730995479784740e-01
-1.297208428247583756e-01
-3.099266560117929781e-01
-4.357251161737787370e-01
-3.907854572874311372e-01
-3.207179185841588787e-01
-2.476912925495944329e-01
-4.509636504079047592e-01
-5.061915387807259803e-01
-4.189476952038549418e-01
-4.579139271408986245e-01
-4.855063079395234293e-01
-4.021281178508367971e-01
-3.177022884231238686e-01
-5.152285583194996521e-01
-5.993729103551233006e-01
-3.449330895935312502e-01
-5.821206249232770968e-01
-5.187482142285917419e-01
-7.302623474563505468e-01
-5.824771397532685357e-01
-7.939502515393939142e-01
-8.242020966158538631e-01
-6.599077412416615163e-01
-6.822155532925622268e-01
-7.347592325527613211e-01
-6.367415886180661788e-01
-8.237055474829085844e-01
-7.482423577151084970e-01
-6.666440858740615427e-01
-8.173292042682021030e-01
-8.593482911403861335e-01
-8.117608713471174964e-01
-8.750479161963987673e-01
-1.003194162937923295e+00
-8.906338513569116433e-01
-8.863686952508542660e-01
-9.516426958608282805e-01
-1.018793182490905336e+00
-1.123609205409798806e+00
-1.015044185844501401e+00
-9.503186613536468430e-01
-1.122915726251389579e+00
-1.064505371744443485e+00
-1.168511957169327653e+00
-1.023954121483067858e+00
-1.110901831427187680e+00
-1.002235058939368484e+00
-1.030119387143610954e+00
-1.178940488914198559e+00
-1.040722015718647864e+00
-1.280566963126309687e+00
-1.082938157061934303e+00
-1.212511161811354654e+00
-1.245893518438883518e+00
-1.242627055325775220e+00
-1.147785919296227419e+00
-1.265492764424838379e+00
-1.130550697187779674e+00
-1.190657846519934004e+00
-1.133501859676288026e+00
-1.242064772791852345e+00
-1.175539455192582183e+00
-1.040211125698293770e+00
-1.325900625498955154e+00
-1.275270488988341500e+00
-1.218489740703726287e+00
-1.399202362367489849e+00
-1.232816069544640181e+00
-1.230006639520222267e+00
-1.354605962452894774e+00
-1.407910593982267367e+00
-1.379089483643046066e+00
-1.278512440746209844e+00
-1.451758016455179767e+00
-1.278003124907045152e+00
-1.090330962947530402e+00
-1.368963656319518218e+00
-1.197031754558106842e+00
-1.286529649788293206e+00
-1.204135493501532705e+00
-1.232181271747031293e+00
-1.461893593216664566e+00
-1.218843950052621139e+00
-9.650796221813746634e-01
-1.409301638242812516e+00
-1.319263699587087446e+00
-1.277235576492903535e+00
-1.144080581607006986e+00
-1.239815693814349640e+00
-1.237291630785887220e+00
-1.239453115591203858e+00
-1.132354074693091350e+00
-1.183911194694830193e+00
-1.186269966873359172e+00
-1.132478559835703669e+00
-1.058023202073763880e+00
-1.202172721012414902e+00
-1.318296263150338987e+00
-1.088429164623664347e+00
-1.096253356830651171e+00
-1.057535223082683107e+00
-1.198054093356475835e+00
-9.885460697296966082e-01
-1.170808514538092204e+00
-9.816966650637839464e-01
-9.561445605894438593e-01
-9.128525753905598616e-01
-9.988014200461254877e-01
-1.008724449936664103e+00
-1.072823244420975097e+00
-1.020029019422270977e+00
-9.398529353601253744e-01
-7.415988372499306980e-01
-9.268358890696328789e-01
-1.067771664168721601e+00
-8.839641202305326129e-01
-7.964301349711614408e-01
-8.755649340258928603e-01
-9.318929572380945103e-01
-9.096986700296048056e-01
-6.966155700627507663e-01
-7.547382258517895126e-01
-8.704133545870084143e-01
-8.099016541933803381e-01
-7.863459393867485714e-01
-5.164316055936931660e-01
-8.796705250927094877e-01
-7.079889695860080989e-01
-7.673342402829133047e-01
-6.884898021226733000e-01
-6.079342441676434117e-01
-7.337357347931171558e-01
-6.237042815806191909e-01
1.311483337188815712e+00
6.727296361294987648e-01
1.199157928287576391e-01
-1.410639030726614229e-01
-3.075977142794442676e-01
-6.386678064034403413e-01
-5.118529711677530791e-01
-3.733130400690813921e-01
-3.404310869155190433e-01
-6.354192211787613731e-01
-3.766711668335011587e-01
-3.340310914026091149e-01
-3.621112446976539889e-01
-2.492355511492000963e-01
-2.259747699671171839e-01
-3.075680969387757369e-01
-2.353731135199725322e-01
-2.773880133182545227e-01
1.685353575740507481e-01
-2.258301117697200100e-01
-7.255419094030984839e-02
-1.127730417710520461e-01
-8.001182488358292433e-02
-3.303979422513929065e-01
-3.917856035188591046e-02
-2.671536428052893597e-01
1.190111171348123137e-02
-5.135685296831590113e-02
1.045044177310223699e-01
1.314330984457786067e-01
-5.744965455910504282e-02
1.537387038434648301e-01
1.789429212431536687e-01
2.287470124202256316e-01
1.241978387395049899e-01
3.759619001692174889e-01
1.423951370192722832e-01
2.309059792851445858e-01
2.004805787292818775e-01
1.465406386156470342e-01
1.367655969820048556e-01
3.166510732592641708e-01
4.329464822518011013e-01
2.832573373761514413e-01
1.181154079869853324e-01
3.607793286075047789e-01
3.229758295095386256e-01
3.125763688291250952e-01
3.791049701129290961e-01
3.440493274019759129e-01
4.705735533714888730e-01
4.453815660902558649e-01
6.111472575880858571e-01
2.773503073645491868e-01
2.667690531729217662e-01
3.865296119057189395e-01
4.738838184773786488e-01
2.878618538351838119e-01
4.946782096165234788e-01
5.628667784370692262e-01
4.412016113168519271e-01
5.616465762435813858e-01
5.427625211346950307e-01
6.456719581824588161e-01
5.516984658762501548e-01
6.117809371189346646e-01
7.519191401559531807e-01
6.196270340446248248e-01
5.046521272321717877e-01
5.912555578579772320e-01
6.162154717702884588e-01
6.474200494377437831e-01
5.646674207382710309e-01
5.430743056479880870e-01
6.831121679486332754e-01
7.005081129380194005e-01
6.010252203436861063e-01
6.686260724793890997e-01
7.508524664475982879e-01
7.298885878605437805e-01
7.300090747037399908e-01
6.393289404576821822e-01
7.134630317120335130e-01
5.858404844464180083e-01
7.012078202158641416e-01
7.817894324659935279e-01
9.037055909260645059e-01
7.572065122758260269e-01
5.978411389055999781e-01
8.308437382522342318e-01
5.889024477163298243e-01
6.737895976952273935e-01
6.187454743007734237e-01
6.896613108773355094e-01
8.817234385645321693e-01
5.828510107403575002e-01
6.180205824997373476e-01
7.773074432451970717e-01
8.427787718583771293e-01
6.069110384169802419e-01
7.116124834317263392e-01
7.383756214221581793e-01
7.870671297765283736e-01
7.174086711179261666e-01
5.403752330561583106e-01
7.083707489092494480e-01
6.633813880803666185e-01
7.094143683844100767e-01
8.564411995141621992e-01
6.252584795285478503e-01
6.869826853840856895e-01
4.288025018363247343e-01
4.401380137753967414e-01
7.974458602858297551e-01
4.424310570445274537e-01
7.445082119413765076e-01
5.744245245402096467e-01
5.982322736333802737e-01
5.985516586554453511e-01
5.439642697076843003e-01
7.154538082312156266e-01
4.749285321433828755e-01
6.148057354193913193e-01
4.871737176596930285e-01
6.127668942917097183e-01
4.015340574633978199e-01
3.854727127978006540e-01
3.403645565018511565e-01
3.210800782469376835e-01
4.057297993115579482e-01
5.279004762206648271e-01
3.338591339109106548e-01
2.919009515268089494e-01
6.114651824700476634e-01
3.146342254922795401e-01
3.819955856351869850e-01
3.240989841787609849e-01
3.489141384187835482e-01
2.304390899920928937e-01
2.615842404687902523e-01
2.334207555329224082e-01
2.153290587715416537e-01
2.980431375840241759e-01
2.695909046243146756e-01
2.387444714544164903e-01
1.638324233192204882e-01
6.051456457443951664e-02
1.234152104391977312e-01
1.147164734196463309e-01
3.504646094876530393e-02
9.246633709226828590e-02
5.919241970193821201e-02
-9.900086548013263543e-02
-7.605230185509945229e-02
2.307770819346938174e-02
-7.878717718569451522e-02
-5.333185335959544221e-02
-2.392710938074421589e-02
-7.126194054870323147e-02
-2.778214293855001960e-01
-1.202017958166885364e-01
-2.513055874786067623e-01
-9.071266757321236329e-02
-2.033034287602129286e-01
-1.050926081348479979e-01
-3.869298352531167495e-01
-2.216079405432650196e-01
-3.716929981499590974e-01
-2.968113626375085690e-01
-3.015685821944955602e-01
-3.110754800507017359e-01
-5.458713150978535822e-01
-1.506346821037833350e-01
-5.752634082855897502e-01
-4.462972845022545876e-01
-4.254146906051524679e-01
-6.062024171175358633e-01
-4.914170590673895278e-01
-6.869989282344266535e-01
-6.282947218340542150e-01
-6.032066074709925285e-01
-4.725749781589653753e-01
-7.515791617407647784e-01
-5.294604757083365421e-01
-6.153097232496175240e-01
-4.258224016736503748e-01
-5.338287117943387727e-01
-6.168157425495024437e-01
-7.620438933778208579e-01
-7.654140437936938213e-01
-7.396912534087092261e-01
-7.127147354421566883e-01
-8.672606159813931459e-01
-7.519227083111359455e-01
-7.871127830688338101e-01
-7.841210550289150483e-01
-8.935040093779385018e-01
-9.544182631055159183e-01
-9.391856457284938342e-01
-8.358406306612327086e-01
-8.752558427079988324e-01
-7.200905334606424457e-01
-7.799201902891943483e-01
-9.562716078658960450e-01
-7.210807148064702909e-01
-8.976631202058634740e-01
-9.793199882377194854e-01
-1.059975454454437971e+00
-1.000680956643641872e+00
-8.204191847147537242e-01
-8.161302890550686806e-01
-1.000184364261734515e+00
-8.841260421350811693e-01
-1.080820554878204831e+00
-9.818516323815974500e-01
-1.088425836055519458e+00
-1.071697104354315533e+00
-1.088950080144566179e+00
-1.090468514699625802e+00
-1.005799505032909602e+00
-1.080104643240512585e+00
-1.080593891452862332e+00
-1.223818693864499707e+00
-1.279081318673513046e+00
-1.154410709334053653e+00
-1.007220920907554884e+00
-1.215419328599526061e+00
-1.111366654578184621e+00
-1.086600544334037854e+00
-1.134685916217766488e+00
-1.295950864410086556e+00
-9.516308141996150383e-01
-1.110084839837617965e+00
-1.008630505908590047e+00
-1.112482843937894650e+00
-1.195569987149961655e+00
-1.075042848131979589e+00
-1.023758042929871159e+00
-1.100080394599388445e+00
-1.084615385942130361e+00
-1.221621591912426474e+00
-1.077919398435985165e+00
-1.080101249090772431e+00
-9.859807924094214915e-01
-9.283952921594362806e-01
-1.091195237879653002e+00
-1.130037184428598795e+00
-9.253444110890004515e-01
-1.062332964634585153e+00
-1.196794469321829313e+00
-1.090189102648682962e+00
-9.895729217372377651e-01
-9.952120690639912892e-01
-1.213930643294839129e+00
-1.089820946193820195e+00
-1.026242841881592760e+00
-8.410501111424457665e-01
-1.231174051386472401e+00
-9.271583116326718166e-01
-7.882673361260751355e-01
-9.419968794063474649e-01
-8.211745322411615478e-01
-1.043190072732701257e+00
-1.176330561485351867e+00
-1.006990016462566917e+00
-8.699678504363813625e-01
-8.250680379784460783e-01
-9.537349502129051082e-01
-8.570713712826438790e-01
-8.258677174540670629e-01
-7.741494013396527096e-01
-9.800414368389555042e-01
-8.699319622194047197e-01
-8.042767736018586744e-01
-8.855336960027143656e-01
-7.870866612223781367e-01
-7.930166579060057286e-01
-6.931045971916015569e-01
-8.049723088438165419e-01
-8.665266114881142734e-01
-7.157429023528243395e-01
-7.522031785916079016e-01
-7.499153398272844218e-01
-6.070315897729178234e-01
-6.585227696549509346e-01
-4.791818151950099081e-01
-4.711127942230229904e-01
-6.322656825393886404e-01
-7.191176678289411539e-01
-5.565341173542384112e-01
-7.205144892461666783e-01
-4.661610273728671872e-01
-4.951618541807333851e-01
-5.651527817002128806e-01
-2.431242860050421284e-01
-5.352036774087615134e-01
-4.127029118596040602e-01
-4.284390604118120116e-01
1.632788410697842973e+00
9.498915957042107783e-01
4.060732799691597061e-01
2.977175438490172743e-01
6.123448868022129954e-03
-4.929548807891256934e-02
-2.129921707542389298e-01
-1.911582917850189189e-01
-3.402814848744954435e-01
-8.842424774959921352e-02
-1.742513822361562159e-01
-4.016913558645293647e-03
-4.274405321124231938e-02
-5.510285917393374644e-02
-4.464659883121089440e-02
-4.405854337900569351e-03
1.174994468757886990e-01
-9.151856638053069981e-02
-7.039728691779420511e-02
2.197159446000938182e-02
2.395923086129339019e-01
1.148755746114861337e-01
1.067588038865782685e-02
5.879055342693194353e-02
1.176014648948254665e-01
1.833056040017375099e-02
3.432475170261579667e-01
9.441477167507747459e-02
4.003154617586764941e-01
3.181413092761581352e-01
3.239194618287437599e-01
3.165344699974862452e-01
4.390204563318080844e-01
2.680722684904507380e-01
5.115886082028895387e-01
6.367704245226657456e-01
5.335967535225469849e-01
3.568981000375790469e-01
2.287042956772255553e-01
4.453473672556527152e-01
4.762811669497065137e-01
5.043067929911992930e-01
5.780072661120758681e-01
4.419813199812685500e-01
5.842524174934493608e-01
6.685798191618463893e-01
6.962716289943704506e-01
4.113836402740324028e-01
4.180798130848106253e-01
5.970270758959083102e-01
6.139392295183547787e-01
8.907925088838770655e-01
7.853719559775753645e-01
6.415243053719992261e-01
7.876047637542686886e-01
6.532939175933329956e-01
7.764308887092924438e-01
8.999759875535147113e-01
7.671331054314597386e-01
7.688044289663334974e-01
1.058501420540332916e+00
9.497809201170414051e-01
1.006832385487022696e+00
1.038627391463483152e+00
7.667977539774856188e-01
1.003448198211196241e+00
8.906269957141227378e-01
1.049093311205256951e+00
1.182380374412748347e+00
9.710382536755096661e-01
1.029305094445599700e+00
1.006318889633554425e+00
9.190671581367678700e-01
9.128980141032109197e-01
1.056840546056725616e+00
9.816083220823271782e-01
1.050099068213861120e+00
1.177115211738174461e+00
9.708062688178629163e-01
9.672782099648677967e-01
8.655681810055323444e-01
1.018259079066792694e+00
1.142999405836373938e+00
1.035229263392321686e+00
9.669657963395298372e-01
1.238393547684039309e+00
9.409481347309102128e-01
1.250906153784278274e+00
1.030902883611523713e+00
1.003705096598486390e+00
1.086807579396137591e+00
1.212921229775435705e+00
1.196184256507997645e+00
1.097904917281735671e+00
1.195415459075050535e+00
1.164690616733683459e+00
1.017690898653803799e+00
1.290472464593091839e+00
1.184864518724621174e+00
1.125696322120282478e+00
1.043412195661414854e+00
1.112863119849871962e+00
1.068344071867284972e+00
1.064011992247443583e+00
7.949782894845514036e-01
9.676859080239859079e-01
1.024325906714482537e+00
1.183019816731622820e+00
1.144984577647344626e+00
1.074944477872253890e+00
1.131280568010181176e+00
1.130579764209027616e+00
8.707307043871221897e-01
1.021937313960724847e+00
9.479840794322865749e-01
1.063815386593060186e+00
9.905005594258532442e-01
1.001744588195446983e+00
9.697348528711242643e-01
9.875108632890864380e-01
1.013772590477252988e+00
9.854604738970949018e-01
9.818095496345629059e-01
1.032105176329740859e+00
1.066023069849450611e+00
8.481569973732903112e-01
9.230096730323548160e-01
8.990940785726145856e-01
9.697711453608347520e-01
8.138962670219024309e-01
9.107286668469675162e-01
9.788240838636079744e-01
8.573837239576413971e-01
7.081900025746463712e-01
8.331406624340098599e-01
6.532807492707357611e-01
7.114558676295023032e-01
8.481941272741797544e-01
6.771038007011583870e-01
7.239688991989825517e-01
6.566745156268389838e-01
7.339141048765367437e-01
4.458341489872088559e-01
6.363014328916281048e-01
6.748574335510411082e-01
5.068199285325252212e-01
5.967387489848702264e-01
4.923519569693678433e-01
5.754879451449252947e-01
4.199491079169739294e-01
4.940655517653086415e-01
4.286853034814483987e-01
4.744278641455890178e-01
3.119963522446165816e-01
5.011016912902573894e-01
3.723688002624682136e-01
3.631456878412855915e-01
2.464203433991761505e-01
2.767474027092876598e-01
4.590510788444858159e-01
2.810705050049693288e-01
4.730249661017076335e-01
3.358385839838394227e-01
3.552224224443668033e-01
2.035084569038430879e-01
2.964865356596832480e-01
3.573805447036616512e-01
1.979788476871139624e-01
1.221095493787976716e-01
2.478638096532058133e-01
2.131079278991384607e-01
1.233101624602798152e-01
-3.960995017805563068e-02
4.452579148769272160e-02
4.525910094360097169e-04
1.690280977340366531e-01
-5.676633742862625953e-02
7.536385914930243679e-02
1.535760581000654434e-04
7.101991951773227452e-02
-3.652799948468246627e-03
-9.605083966330751899e-03
-9.391619607930862257e-02
-3.687743934322551542e-02
-9.470781746537673684e-02
-2.808618360718785900e-01
-3.888668937043026075e-01
-1.539497376419003971e-01
-2.281409228428169511e-01
-2.617355388218495227e-01
-2.049691826924584515e-01
-3.177564676331128268e-01
-2.491687073839671251e-01
-3.601441599854847686e-01
-1.066533444313495227e-01
-3.003661485760242833e-01
-5.341440042660873244e-01
-2.842482907188715879e-01
-5.449263230612353404e-01
-5.332298135301888342e-01
-3.889281429224997200e-01
-4.693610337462650883e-01
-1.466381563151862299e-01
-4.556165203502245964e-01
-4.525559625767394123e-01
-5.537483988017041225e-01
-4.148218848825409588e-01
-5.489511368465110897e-01
-6.964924095841011908e-01
-4.487568166255521129e-01
-4.711986621212092552e-01
-3.906088238791746159e-01
-6.691196513027792836e-01
-3.631342341377666871e-01
-6.520601409599097176e-01
-6.894627603122103210e-01
-6.608578798705923019e-01
-7.079540490770412919e-01
-6.160167649696384196e-01
-5.241715872150766176e-01
-5.422600867769900024e-01
-7.384306668398969986e-01
-6.308573923154777718e-01
-5.050614309488600240e-01
-8.320789240986201651e-01
-6.555708929480936753e-01
-7.700392890945479962e-01
-7.203865761703791559e-01
-5.826389914234859635e-01
-7.421031714884133157e-01
-6.755922497009061445e-01
-6.263698833879201011e-01
-5.120660660063518499e-01
-7.962959321564789805e-01
-7.447947306282334257e-01
-7.914678404728867633e-01
-7.139480983863916164e-01
-6.024433017030406123e-01
-6.883595914802519422e-01
-5.603172920297880832e-01
-8.418570995073098029e-01
-7.829745937048632198e-01
-6.975075616877041140e-01
-8.225195384567144385e-01
-7.644556818971437462e-01
-8.606606705188620809e-01
-7.789177984230910567e-01
-5.848899927315710512e-01
-7.475202899846580262e-01
-7.189062335004257065e-01
-8.382906311734934501e-01
-6.861401486224372182e-01
-6.211924997504727486e-01
-6.267710284130064702e-01
-5.011952547110930523e-01
-6.339350365189326819e-01
-6.156176310222564174e-01
-5.936159703164858303e-01
-5.324814203591845541e-01
-7.298674588140198205e-01
-5.435447454376206577e-01
-5.295698314117924799e-01
-4.966554475760143750e-01
-6.224974084145763475e-01
-6.188825789654988085e-01
-4.847472838930903527e-01
-4.286926683521843362e-01
-3.219868995269906109e-01
-3.703766102357486933e-01
-6.515580064017628681e-01
-4.327346026891656372e-01
-4.064408129349418863e-01
-6.870631592850502400e-01
-4.772213494440390447e-01
-5.434111308770780413e-01
-5.090617368324086289e-01
-4.807316013468212468e-01
-4.434168971661856529e-01
-5.686211568748402723e-01
-3.603135935709371740e-01
-3.110212204924120982e-01
-3.375543497510391511e-01
-3.294821037122749874e-01
-3.499790796812008997e-01
-2.312932742082722815e-01
-5.046502562093011512e-01
-2.934184930287254134e-01
-1.324916864999619581e-01
-1.235827565799171024e-01
-3.747561996658268502e-01
-1.109603753820522787e-01
-1.049941554873238536e-01
-2.160526693149884825e-01
-3.278027186383350444e-02
-1.635593383163554126e-01
-2.449317523144049213e-01
-2.014024299972596022e-01
3.616932800526934111e-02
1.750972033372366621e+00
1.138282559634806068e+00
7.568094817227222215e-01
6.085790333939974373e-01
3.275249044868821513e-01
5.211805763489411880e-02
2.105627382463988728e-01
3.094993415249892577e-01
7.601619665452508112e-02
3.626425604238717182e-03
1.405027620259274024e-01
1.689692036630734695e-01
5.767343751747661118e-02
2.567893649117860000e-01
2.089131831992340760e-01
2.694764046019768600e-01
1.584080717690776741e-01
2.482544468913552571e-01
3.445284689889687724e-01
2.528220534587019008e-01
2.940502931284216248e-01
3.567694667131880992e-01
5.792175107376900112e-01
5.063704475938286542e-01
6.882229471169912793e-01
4.445889211464771895e-01
4.593489190296033975e-01
4.459036456170124563e-01
6.384624493768358278e-01
4.669971107564289126e-01
4.838991127084571464e-01
5.269609563067297886e-01
6.172129261792836941e-01
6.476182236257210789e-01
6.317485813770157277e-01
6.551293805941159620e-01
6.170768766092769031e-01
6.648497930469471351e-01
5.978530696375263798e-01
7.308710720819618922e-01
9.902736538071348349e-01
7.149378185563821653e-01
7.281072800221292107e-01
7.014817869351276380e-01
8.724984665970804132e-01
9.612035255035273895e-01
8.519462570305930127e-01
9.619319317777433875e-01
8.784506673960400525e-01
9.362335161852759491e-01
8.728569733436556399e-01
8.754415647963977865e-01
1.068283144288076913e+00
1.043440632541677626e+00
1.160440873601985778e+00
1.150318297691689473e+00
9.856666475188311516e-01
9.289568185080689933e-01
1.016999936638174340e+00
1.182868556916595537e+00
1.082168223168099130e+00
1.091674220374853288e+00
1.182265363443597339e+00
9.903657816949613668e-01
1.205525640878419624e+00
9.602469989870395795e-01
1.177514600395765720e+00
1.133916549184394551e+00
1.164157156484490363e+00
1.116150304421016370e+00
1.243372294762820518e+00
1.293514362157205388e+00
1.217741564730112191e+00
1.239616582649504695e+00
1.096613481812062973e+00
1.282459446116924751e+00
1.190598700266083831e+00
1.252228765910069708e+00
1.235899276911363254e+00
1.347701366780723831e+00
1.166664487156070518e+00
1.396904897914901467e+00
1.344997540031196648e+00
1.377119777745951401e+00
1.292532551787122452e+00
1.292702100871071513e+00
1.327982906992622336e+00
1.387441857648717747e+00
1.406659995132320429e+00
1.193655330881657539e+00
1.342302859079489430e+00
1.207637707619632295e+00
1.238227807537441105e+00
1.128949645705607852e+00
1.174585385898318846e+00
1.228589119244416494e+00
1.323778732892818555e+00
1.287888126206253592e+00
1.244453364509806370e+00
1.160794593808960773e+00
1.329969924371308121e+00
1.253032708012292273e+00
1.329805984875388702e+00
1.198685420850004846e+00
1.057677197565632721e+00
1.242796092119698548e+00
1.124176263854554492e+00
1.135774784858079922e+00
1.353703908364163544e+00
1.057982009956649261e+00
1.123348275077864500e+00
1.171027069056811643e+00
1.093572898373591284e+00
1.191899691460178268e+00
1.139867642637673706e+00
1.150261758161454706e+00
1.075877361940089871e+00
1.067794532700526267e+00
1.084382094749038572e+00
1.167881309257691624e+00
1.145399235741567434e+00
9.445024103739793064e-01
1.183481274530627125e+00
1.121856467610223618e+00
1.105699186999504313e+00
1.009883532101797821e+00
1.067887175530976007e+00
9.608835311439117843e-01
1.021674185068892848e+00
9.899029957399736457e-01
1.029871471593085008e+00
9.202871364395245335e-01
1.067606656768893991e+00
1.008343626390094006e+00
1.095161848912475921e+00
7.395492839228001714e-01
7.938201880678559252e-01
5.694258120613291396e-01
7.643033006922467232e-01
7.099661247792234953e-01
1.009091625621601374e+00
7.937482656013963300e-01
7.604609660439245467e-01
6.589962970159332079e-01
8.155009983897600900e-01
9.308476986698562827e-01
5.142673099439132312e-01
7.302183875937537927e-01
7.426206566641099238e-01
5.926749750696505004e-01
7.094399904600534601e-01
5.008606614802284529e-01
4.687492160667533492e-01
6.211812722961306266e-01
5.548823389625329172e-01
7.120670380713201020e-01
6.401688610175730876e-01
4.818497906802456932e-01
3.665976253450432543e-01
4.294589449946454862e-01
4.106172671391523643e-01
1.448770921459126282e-01
5.769085839045259290e-01
4.214524284463532222e-01
2.774992891576820164e-01
8.616963212356371082e-02
1.552788148365035759e-01
2.782827799294060322e-01
3.905208453416700309e-01
-2.183961698126737905e-02
3.503338420397655861e-01
1.976433112572116846e-01
1.274110316440935087e-01
3.286786367362183325e-01
8.461515129751132069e-02
-4.012726698758178889e-02
-8.230848583298769339e-02
7.218205526357640567e-02
-1.171386199987453913e-01
1.116602902264330344e-01
1.834803282935298929e-02
-5.713490179198568719e-02
-7.032698899932207648e-02
-6.094591392661603130e-02
7.619800858924896669e-02
-3.945401189231119432e-02
-3.284293296582271315e-01
-2.888074309994969613e-01
-1.150572784837203127e-01
-2.704165623412272956e-01
-2.144199356524988942e-01
-4.567807314249812123e-01
-2.811348055949310365e-01
-2.932449454314624560e-01
-4.693899052058180255e-01
-4.858902201394232900e-01
-3.821218920332629665e-01
-3.146210833837554399e-01
-3.839985540450818746e-01
-3.298477188117780456e-01
-3.477203255830630946e-01
-3.880649637610286140e-01
-5.089713997143396895e-01
-5.742705047521919903e-01
-4.082159038450813293e-01
-5.312521824345882715e-01
-4.602830721528270996e-01
-5.109813731916172941e-01
-7.252676928258994238e-01
-6.364665670813051124e-01
-5.380227648940221208e-01
-5.032289482542250392e-01
-6.385996348446864035e-01
-5.541853206811322430e-01
-7.696139628736715643e-01
-7.211995117605305428e-01
-7.316079498651304469e-01
-6.459647477225120005e-01
-7.748041965516563323e-01
-7.703177385847230774e-01
-8.424362331244164004e-01
-9.938558959060982412e-01
-7.784762296436646967e-01
-6.214930906938886945e-01
-9.357912011962312704e-01
-7.438227340937091370e-01
-7.531057315854988721e-01
-8.751279552863762135e-01
-5.857567073682377057e-01
-8.522640214880776721e-01
-7.476676317066592858e-01
-6.868769309334913364e-01
-8.992252491697053651e-01
-8.293642393659261813e-01
-9.424357944905215057e-01
-6.775528887605257733e-01
-7.297669979112318961e-01
-7.666313593591477238e-01
-8.081936137446434909e-01
-9.627705725922610647e-01
-8.151337900908606215e-01
-1.070834932140382723e+00
-9.210613712737318881e-01
-8.271789934688092982e-01
-8.200523159360215697e-01
-9.549494120714403511e-01
-7.805966973225666461e-01
-7.389415152054020774e-01
-1.064679779545706584e+00
-6.598376662260754255e-01
-7.937609450663207777e-01
-9.962984797117150348e-01
-8.509937044520957672e-01
-7.267255706041872987e-01
-9.043658894507267121e-01
-8.151279867089875619e-01
-8.387153739128874186e-01
-8.039834171241047045e-01
-8.366654313776078489e-01
-7.078461418757167056e-01
-8.896693734769514084e-01
-7.520878806172585085e-01
-9.404007511513822193e-01
-1.003767016746692331e+00
-8.807122950007574280e-01
-7.831684988282915372e-01
-8.615730648261820113e-01
-8.410761957999663974e-01
-8.009300168914827989e-01
-7.508021343026788363e-01
-8.907379398290807826e-01
-7.016967642144728012e-01
-7.155687840965875290e-01
-6.916383925379102626e-01
-8.009901690266936214e-01
-7.755910571087090144e-01
-7.313085875813315484e-01
-6.417206053790169840e-01
-8.471642414267841481e-01
-6.667454238987496895e-01
-5.874567817610678588e-01
-5.712810868919016016e-01
-6.135578274068932414e-01
-5.596347968434920439e-01
-4.621551177143872202e-01
-7.229256821844949332e-01
-6.238136171733137392e-01
-5.344737666215982896e-01
-5.955857714995240748e-01
-5.774365694719637565e-01
-6.019138302600606227e-01
-4.492473735544251223e-01
-5.158597089506676836e-01
-5.553397464923598426e-01
-4.764553869157588384e-01
-3.656287188296718504e-01
-2.945311473259685786e-01
-4.435336914929461360e-01
1.653253288898757667e+00
8.525869181230172344e-01
3.264908166643757936e-01
1.419850333534261044e-01
-2.782810718808242934e-02
-1.876433871981476320e-01
-2.071415110513038504e-01
-1.824919985159968450e-01
-1.905395925435838800e-01
-1.764651696822333304e-01
-1.188400744638936080e-01
-7.542205538442750545e-02
-1.133894065736445189e-01
-1.400963311925497723e-01
-1.742392060597586223e-01
-4.833390231567832179e-02
-5.149581080695062041e-03
-1.506550393022426659e-01
-4.869712121218853357e-02
-4.103154295729352641e-02
-1.891547358194717865e-01
9.150814511232345516e-02
1.490164357415241780e-01
1.238937929495882301e-01
-4.645898602774865827e-02
5.390833861190473530e-02
1.958110867348067385e-01
2.150316905493640240e-01
4.127669321693305804e-02
3.235948365463273135e-01
1.750341989095522688e-01
3.800519968953464667e-01
2.164987294293672926e-01
2.499403941374551408e-01
3.164666088505852515e-01
3.995638696100444198e-01
3.626128458512679620e-01
2.995984013185590822e-01
2.887924672985621721e-01
3.627920294714097604e-01
3.155288524923158255e-01
4.664175181358309885e-01
3.313958278132210777e-01
3.804568045190106496e-01
4.037562161676742090e-01
4.906156754106928419e-01
4.884567045648254835e-01
5.201596256057805512e-01
6.232670905794017724e-01
4.713193161376547091e-01
4.235584124163477293e-01
5.455792737420673832e-01
5.710489202385827801e-01
6.074629833045316341e-01
4.707675459421138964e-01
6.645031377487031765e-01
6.294970341635396371e-01
8.206586045842813038e-01
5.969359686148575372e-01
7.220812070813478201e-01
7.748349579876636639e-01
6.958767485475066961e-01
7.253221771148713470e-01
7.038805997152387528e-01
6.857027476355087581e-01
7.483353978585226551e-01
6.956345948190104655e-01
5.556808211845520873e-01
7.639406986580586922e-01
9.190275915892800462e-01
7.945804231008261054e-01
7.846430588033423970e-01
8.299886149568100890e-01
8.352611206626540108e-01
8.013140601718187206e-01
9.293259569411340681e-01
9.398957005488215444e-01
7.964393508779259445e-01
8.076543192205239974e-01
9.921380562757154964e-01
1.085149039970389584e+00
7.238695392571076193e-01
6.908528186168367835e-01
7.040192911708549328e-01
6.676168090437597513e-01
9.195964172542476778e-01
8.230745485886604706e-01
9.686274608343943271e-01
1.016070819961686356e+00
9.793717822662190153e-01
9.205890066159878593e-01
8.407141375485506218e-01
8.137503360851822132e-01
1.023241257215084854e+00
1.085896380187332921e+00
1.040341793458192665e+00
9.344088401450474368e-01
9.312163332960087248e-01
8.039174458051137062e-01
9.006186156932125542e-01
7.595330636316250938e-01
9.090816615583173776e-01
6.995668968012045408e-01
1.001066233625353519e+00
8.019408055827328408e-01
9.224983189730147082e-01
8.742846077967968421e-01
8.454951070482965569e-01
9.682511692911568435e-01
7.903318200113335079e-01
8.064378464704058391e-01
8.486582525319746884e-01
7.219881079309664607e-01
6.706793054463688897e-01
8.138060447879849058e-01
8.368648493541406275e-01
8.192568094580322535e-01
6.938083027261510161e-01
7.602917158565433153e-01
6.645532486694754049e-01
8.970306507650862571e-01
7.636809401151727350e-01
6.491043856713326621e-01
4.807015265378923319e-01
5.962816074292751622e-01
4.931744938478843099e-01
4.983639445071064711e-01
4.960968169499921920e-01
6.448186387134909880e-01
8.074513411911500294e-01
4.742098094580695644e-01
3.875280298479085728e-01
4.429228629585451604e-01
6.870337139574255181e-01
4.075099919429725492e-01
3.675333410947025925e-01
4.054289844594987646e-01
6.194267626452276687e-01
2.609024040938249245e-01
4.594571612686744744e-01
3.162486315974366580e-01
3.967278236473745778e-01
2.437402981269333746e-01
4.077013946973312430e-01
3.718871112181330041e-01
3.661699036943510954e-01
2.364011681813436017e-01
2.820878348312342299e-01
1.521296673580728454e-01
3.924306800468082002e-01
1.925526751377606427e-01
2.778307466982153362e-01
1.454577102646367193e-01
5.869845109424923213e-02
1.163077647257656222e-01
-6.132441780211925209e-02
2.015249762123960953e-01
9.575997935273231065e-02
1.419033959483158580e-01
3.757867735293848183e-03
7.063845474661256674e-02
-1.954243742063375977e-02
-8.786795417005158204e-02
7.188837364438513400e-02
-1.402357442652085173e-01
-8.500840273806627156e-02
-2.254652896785877547e-01
-2.955296816532200221e-01
-1.017098016283421030e-01
-2.079018486631073748e-01
-3.198490291382125039e-01
-2.343864813013050441e-01
-2.717680588394262853e-01
-3.417136805150580159e-01
-3.120018325734608688e-01
-4.818570722663719774e-01
-1.934785926101716957e-01
-3.985923172284327465e-01
-5.065594929559646964e-01
-3.042116373078731506e-01
-7.075882205301931016e-01
-4.800696901777558034e-01
-3.861922019593808653e-01
-4.717775719598843454e-01
-4.452291320613235293e-01
-4.882740884208239818e-01
-5.584810940001903035e-01
-6.887020864811013166e-01
-3.607157304179621216e-01
-6.286812672711590277e-01
-7.321372766559484102e-01
-6.686751912950507082e-01
-6.383056496037282646e-01
-6.385259025948517575e-01
-7.527929326404639854e-01
-8.081516244584679987e-01
-6.604958512806757831e-01
-7.858483241094723626e-01
-6.912238498164852141e-01
-7.949341810429002564e-01
-8.560730041635924437e-01
-8.454820190938785451e-01
-6.628650775195739087e-01
-8.496328880456691657e-01
-6.517939496534495003e-01
-7.236457543614018828e-01
-8.738037095128703413e-01
-7.404865595873217909e-01
-9.861960122848543175e-01
-8.843170131517426036e-01
-9.232421395736782888e-01
-8.974589120665907860e-01
-1.170857110036249704e+00
-1.021836927421435171e+00
-1.156303993752308967e+00
-1.161443141231276233e+00
-8.394425074009103094e-01
-1.075857775333981747e+00
-1.109247817498992150e+00
-1.043264549657100471e+00
-1.227854339418244844e+00
-1.099335143289400074e+00
-1.242729144760189808e+00
-1.104997971079993313e+00
-1.167567258708907429e+00
-1.224134851407296054e+00
-1.241963395740422804e+00
-1.056713121214825968e+00
-1.231751940136686985e+00
-1.312632334523808453e+00
-1.368914107381352219e+00
-1.390619320856398833e+00
-1.211846047221343703e+00
-1.139091385796456191e+00
-1.348730172370220748e+00
-1.314070489147551646e+00
-1.165650908504162420e+00
-1.150843849192093815e+00
-1.373097251005163999e+00
-1.313425283676759925e+00
-1.308617866988635248e+00
-1.246599162258753779e+00
-1.094315915391313121e+00
-1.248394236272062363e+00
-1.268992408872693822e+00
-1.349928897216643664e+00
-1.288056865906129334e+00
-1.240360633166984305e+00
-1.373191552585127928e+00
-1.249738036645033468e+00
-1.294053960694094396e+00
-1.316377290958520963e+00
-1.224600303552017211e+00
-1.212223714458064761e+00
-1.374024894213564663e+00
-1.305712049626296611e+00
-1.059656714703836489e+00
-1.223557638914634316e+00
-1.454358751073572265e+00
-1.067259695381367557e+00
-1.274916836684759636e+00
-1.141004111989335268e+00
-1.311878998676580643e+00
-1.096273499806576179e+00
-1.080779530688533052e+00
-1.229597711777869584e+00
-1.302707828386963751e+00
-1.218751012331879879e+00
-1.454098042254346135e+00
-1.212514737030415901e+00
-1.007345358730311391e+00
-1.141840085831234974e+00
-9.988487225809223879e-01
-1.130479347134148549e+00
-1.028868933104014394e+00
-9.692200931939618513e-01
-1.095532511155556277e+00
-1.049089153105682515e+00
-1.196535140977655454e+00
-1.161045651657061306e+00
-1.050827741787984326e+00
-9.069854521835367667e-01
-8.122079088301220606e-01
-9.838676129380897750e-01
-9.106860920738083509e-01
-9.758613127586738267e-01
-9.115827773433993197e-01
-9.557361656575390496e-01
-9.216323914051101074e-01
-9.547355090365777786e-01
-8.681417789861668455e-01
-9.501630651320118748e-01
-8.544394152058693015e-01
-7.998413598148387260e-01
-7.425260104904816139e-01
-6.970284388987988411e-01
-5.765491790694545760e-01
-8.843233173752195198e-01
1.042227957820112128e+00
5.522273699513111644e-01
-2.129263115753712299e-01
-2.495407186925037712e-01
-4.494129187871309661e-01
-8.114487782951640416e-01
-6.657060011423261425e-01
-5.992603074995608292e-01
-6.659216785276382833e-01
-4.383250341554185692e-01
-4.328963409942224727e-01
-3.318381923776293485e-01
-6.665889544188224880e-01
-5.607061271439774952e-01
-6.923352270711484735e-01
-4.399554523056253275e-01
-3.598352552331782195e-01
-3.932079578551484489e-01
-3.480838282728576094e-01
-4.358578969062353314e-01
-3.363187456565498445e-01
-4.258333144900948719e-01
-3.590021957443926270e-01
-1.633566267183751419e-01
-4.040092088708103213e-01
-3.311070600533958519e-01
-8.746707281864396499e-02
-3.361908519961649411e-01
-1.038882378461372519e-01
-1.744275518133411862e-01
-1.733727014072680150e-01
-2.470887835150372414e-01
-2.626643078515786267e-02
-5.510205267191971290e-02
7.320838707028870518e-02
-7.373012455516222974e-02
-9.942766788598689232e-02
7.221338972219489005e-02
6.242989202342590083e-02
1.571031189450216581e-01
1.954508921097928842e-01
9.930111401332983312e-02
-1.409943747382433332e-02
1.503607310101894301e-01
9.318693686625498240e-02
9.822594359016566246e-02
1.426228340616620405e-01
2.044062822118118405e-01
2.550007533290044037e-01
3.200586942345838848e-01
2.699439177613148222e-01
1.214469025205292263e-01
3.124742904817328637e-01
2.921786077157555450e-01
2.671826477703922453e-01
2.731709126289815215e-01
2.358532644005962575e-01
4.091305536202909932e-01
3.467173479990920404e-01
3.750987695572032266e-01
4.255771562004483366e-01
5.559923372864361557e-01
4.842907347690426634e-01
3.107615526264656536e-01
5.197046992237672747e-01
3.833795112917067760e-01
4.770658348246238356e-01
4.143359414507462035e-01
6.129882799442840646e-01
4.905793336037384544e-01
6.053228472370451030e-01
6.126860939634712899e-01
6.956823627650392527e-01
6.049240652902946325e-01
5.532543491820801629e-01
7.164811626926439470e-01
5.428947972124912313e-01
5.824415365729556093e-01
7.467179768262686146e-01
5.523563602282198781e-01
6.311477930030890970e-01
7.725132055033012701e-01
6.732248756237296794e-01
6.529057852432224029e-01
6.930002224937935607e-01
9.247711996150983493e-01
5.847175871950165416e-01
6.174828197472626012e-01
6.090929894354843999e-01
8.345278001303039206e-01
8.960760458052330346e-01
5.955460958336036281e-01
7.866299101466460719e-01
8.271681578544658464e-01
7.799700261928231848e-01
7.794482495837660174e-01
6.876402351223387388e-01
8.458049749887263102e-01
5.741822006884420571e-01
6.590896932138414765e-01
7.766163858278122278e-01
8.812333519202177889e-01
7.980901569234236659e-01
8.628979477916622898e-01
7.690295992056744856e-01
8.527936501175171768e-01
8.290895709727001961e-01
6.863437608641910215e-01
7.064384056355906827e-01
5.682456721686321988e-01
7.810211285098178635e-01
6.707881526691915619e-01
5.137472169110581799e-01
4.972517595133072454e-01
5.754656013172481099e-01
6.137913902625997675e-01
6.226098825045750518e-01
8.352289058831693369e-01
5.128192573269113597e-01
5.912421580140476696e-01
6.039354580160096742e-01
5.504797409373076711e-01
6.251625560019048455e-01
6.497840892625851295e-01
5.581022895422210750e-01
5.594135894105858320e-01
5.464063513048856846e-01
5.679990033876121114e-01
4.906185779169017769e-01
5.898028217331910961e-01
4.914399471951634846e-01
5.168378029833033960e-01
5.322244564861509097e-01
5.224589934381751455e-01
4.633992540295330809e-01
2.463791956117994120e-01
3.913512564191620746e-01
5.497383509632474130e-01
4.666346602552912670e-01
4.029805081922399057e-01
4.000934390005460028e-01
4.620397779739874866e-01
4.445501726313350055e-01
4.468037648739437984e-01
4.290405471426944617e-02
2.365110745367697276e-01
1.114780619705744436e-01
9.198329788938669482e-02
2.112998411887544725e-01
3.222796104938061568e-01
2.297058280661827823e-01
1.951133530762413082e-01
3.111640895477462698e-01
-3.153374884462817329e-02
-1.790384054034660499e-02
1.602442068447091916e-01
9.489036280372897814e-02
-6.454595235063609326e-02
1.829948908497523175e-01
8.651518874525734870e-02
1.040879295925647985e-01
-7.639574733950781071e-02
2.635890822584481541e-02
-1.404303370079897362e-01
1.636716051372167913e-01
-1.823596682071231267e-01
-1.029044651419787348e-01
-2.588714733777959243e-01
-1.453195628803854722e-01
-2.012269104206370618e-01
-1.951463653371527107e-01
-2.748600609230294478e-01
-1.399746331680282452e-01
-6.566458744388006807e-02
-2.667834715147381908e-01
-2.124447476992185058e-01
-2.749845387722488210e-01
-2.043247302010064992e-02
-2.477749440286977634e-01
-2.079590728539654765e-01
-4.324072510855037077e-01
-3.776736379131998000e-01
-4.605042855449355543e-01
-3.159464487538150568e-01
-4.615770708561723890e-01
-5.197181642869530549e-01
-5.704921396744594420e-01
-3.583552815794897040e-01
-7.020951076582089279e-01
-4.413523246894131558e-01
-5.448198371841835863e-01
-5.114553715745731033e-01
-6.008924857692036214e-01
-4.630395796370197492e-01
-5.833681497074398870e-01
-6.585134448826435172e-01
-5.661186040580494794e-01
-6.565877213097994769e-01
-7.666167636187130041e-01
-6.886875667308031135e-01
-6.685150897963089145e-01
-8.771050451242758950e-01
-7.877975982288556445e-01
-8.008560165902171013e-01
-8.299150479582466655e-01
-9.186552222349602115e-01
-9.909865895593851226e-01
-7.608255570051536409e-01
-7.365207565920646182e-01
-7.765025468456681068e-01
-8.347350557086230527e-01
-1.045069853914463165e+00
-8.686041400022166403e-01
-1.104191729020272961e+00
-1.017669970364119436e+00
-8.656017684399260892e-01
-1.160776536495911060e+00
-9.351932922620409538e-01
-1.061782317867746128e+00
-9.734978502924597210e-01
-9.459448248314135110e-01
-9.996781180948905998e-01
-9.464649984638994207e-01
-1.005728907725053300e+00
-1.007067540108564474e+00
-1.058600444877634050e+00
-1.020143054822790996e+00
-1.195709220344138846e+00
-9.078970089275406607e-01
-1.072897199961971193e+00
-9.427937567085848958e-01
-9.957680811627721562e-01
-1.097300671033370145e+00
-1.199430949361016907e+00
-1.105876816135031193e+00
-1.125391953427589353e+00
-9.849153257945226780e-01
-1.235133974695654224e+00
-1.163692107716876034e+00
-1.139499027331239089e+00
-1.190312964705365850e+00
-1.058648457068350535e+00
-1.075043341046207024e+00
-1.074598621237807139e+00
-1.059805260692834317e+00
-1.166873768296831093e+00
-1.143304595564972770e+00
-8.906745061252292484e-01
-1.059065733201788984e+00
-1.073241918043241094e+00
-1.117236169026317061e+00
-1.083797108803148390e+00
-1.337661475394483546e+00
-1.012939491842171247e+00
-1.085654695443619921e+00
-1.039178218168230972e+00
-9.204879684643521021e-01
-9.597194986387742599e-01
-1.034172103179418878e+00
-1.084681414575443537e+00
-8.499258505662966590e-01
-1.182472464195448936e+00
-1.079889035019911292e+00
-1.127140346337769827e+00
-1.024357424863295396e+00
-9.992388824342209874e-01
-8.439898056914492130e-01
-1.198872677103409723e+00
-1.029590192884539457e+00
-1.058958833223146323e+00
-9.382483140939790189e-01
-9.189849785070345334e-01
-8.192888422241935142e-01
-9.516323827353839748e-01
-1.184861681712793935e+00
-8.170821013530059629e-01
-9.033777453059986806e-01
-9.867656368875887818e-01
-9.299631274220844235e-01
-8.595042036713185230e-01
-7.727553218372082977e-01
-8.552289324234374490e-01
-8.367756591115497189e-01
-7.019722443889861996e-01
-6.188588105413838081e-01
-7.470872339753751312e-01
-7.949666274569864299e-01
-7.608265761003794037e-01
-8.423085422739358119e-01
-9.503635224090276612e-01
-6.706603918067655101e-01
-5.916982868100191251e-01
-6.730937069089882874e-01
-7.563593751797820230e-01
-5.985073356516061871e-01
-5.607202739298386973e-01
-4.066938971935618596e-01
-6.011421921355959430e-01
1.349675572498460152e+00
8.523753209958582211e-01
3.320082655692270790e-01
-1.325113334685150135e-01
-3.282567529262749861e-01
-2.943982853178822578e-01
-1.289380234830209138e-01
-4.212393425589464613e-01
-4.274727876721928777e-01
-3.487838238631891241e-01
-2.781223513307591322e-01
-3.603853862447066181e-01
-1.887872902738106928e-01
-2.235300106439600809e-01
-1.695045365521235248e-01
-8.649050619306632159e-02
-3.255481292148616479e-01
-1.229290439274172697e-01
-1.368374669261649412e-01
-2.805392694222859085e-01
1.247962366523642647e-01
-6.235517826693708077e-02
1.377422524986512409e-01
1.319684993148151908e-01
1.679481757052923296e-01
1.175492779898550111e-01
-1.693148825683875591e-01
-1.659235192821482963e-02
1.381589207362157457e-01
1.393478579932293515e-01
2.473267184907958494e-01
2.014387034232480167e-01
2.254311360962087118e-01
2.338892097514986002e-01
2.224713433219129566e-01
1.649362224810689281e-01
4.444246876449087225e-01
4.478674074345628253e-01
3.753670025559784351e-01
2.746511918199992519e-01
3.155012603632902923e-01
5.339233640770241207e-01
3.719082268184803475e-01
1.944048822147635969e-01
4.949170151655101768e-01
3.233651627741714885e-01
5.579733199636344176e-01
4.618952811603788122e-01
3.787257303115638685e-01
4.972398944369433305e-01
5.474251100680121995e-01
4.160821798950453676e-01
4.390548025557872158e-01
5.527340744680977469e-01
6.184980036387291991e-01
6.957387047102372435e-01
8.411372500022015197e-01
6.771160552985399095e-01
8.478585380790182313e-01
7.074080530518803700e-01
7.858508215849968614e-01
8.746823242532845155e-01
9.788423083759238974e-01
1.035647611232475285e+00
8.962585616846840963e-01
8.474502045711780340e-01
8.508912497971492517e-01
9.912122768631733694e-01
9.424803858072843266e-01
9.718321816578300298e-01
1.033619750569829243e+00
8.642200667508881384e-01
9.305236067718396509e-01
8.906018902354893019e-01
8.319280643504054495e-01
9.173454522037414183e-01
9.840937809315880580e-01
8.844187924765276598e-01
9.199805175906830002e-01
1.071293493595209201e+00
9.235940869532811570e-01
1.054767372084383537e+00
1.042651201127780203e+00
1.203418979558938284e+00
1.047120691280596594e+00
1.125892458330016277e+00
1.134155713550462741e+00
1.071963062798285460e+00
1.245153198377953796e+00
9.862617216057847358e-01
1.142669045738654798e+00
1.283866577585319746e+00
8.862419687616804875e-01
1.214159196837591104e+00
9.444391126256826974e-01
9.736689720360173217e-01
1.011181528800827678e+00
1.178324275438353164e+00
1.121386641574226406e+00
1.178305839410146660e+00
9.918672168093169983e-01
1.177051588002772098e+00
1.121136776328489182e+00
1.191938692250033016e+00
1.055510253093420170e+00
1.264613316771911578e+00
1.070725546345952406e+00
1.067968322335307141e+00
1.183533100389899451e+00
1.274946562075357503e+00
1.270163486333656833e+00
1.088939072448581902e+00
1.015016335423057692e+00
1.219163982535065749e+00
1.084295841367503899e+00
9.802691608343183649e-01
9.180237282192351689e-01
1.096120327134429973e+00
1.077218338487847316e+00
1.084603210553236385e+00
9.541168549645098196e-01
9.286034597592004447e-01
9.726792173363021377e-01
1.106389533423396188e+00
9.102460026747207777e-01
1.184838568324059871e+00
1.025977372802484577e+00
8.855135518170214048e-01
8.989208533999106798e-01
9.726093923760804616e-01
8.202950566381222997e-01
9.988844674008903191e-01
1.000379732605218175e+00
9.170167409256249069e-01
9.416744592144596915e-01
8.194525266456417212e-01
8.928639430518678921e-01
8.124856627411721766e-01
9.762388648793343116e-01
8.106735469120626147e-01
6.753734985658174095e-01
6.611612665491464202e-01
7.032548743534466906e-01
6.632243984666206238e-01
6.840584050389548754e-01
7.913100352303026330e-01
6.006439074332068362e-01
7.062290221177597305e-01
5.696716960452090639e-01
5.515816591440543259e-01
7.039726391540015449e-01
7.429745910901027761e-01
6.643110867217202342e-01
7.370616497751397711e-01
4.559156981345182102e-01
5.189662532238835668e-01
5.398306992971739771e-01
4.927490453361715317e-01
5.383034105403377012e-01
5.246488663599089275e-01
5.142056766584864880e-01
3.955207994694462936e-01
2.922405411414511489e-01
3.887345511423737077e-01
4.641640071869697071e-01
3.673047552308498775e-01
1.478373284194628989e-01
3.107305856941368627e-01
2.770941122359786846e-01
4.185949948005089905e-01
4.076844601881066676e-01
1.534622517653120299e-01
3.397296033014635119e-01
4.097288345006563914e-02
3.230223537792630828e-01
2.625609221076428135e-01
1.375538541277107618e-01
9.275538401055588578e-02
2.616866967557693324e-01
2.648362652931297023e-01
7.234395434481102893e-02
1.330583171819766930e-01
-7.052185456249215889e-02
-8.665663584383152818e-02
1.476497166515217396e-01
8.341252311686989107e-02
4.389959934711312739e-02
-1.509101806965546799e-01
3.258089457969473579e-02
-1.259107885948447247e-01
-2.852955292181155178e-01
-1.022345536231787089e-01
4.145227812524052147e-02
-2.017956849972485645e-01
-2.523355275983907853e-01
-1.557447413987780860e-01
-3.443007538861855288e-01
-1.266755862636458341e-01
-2.027481542651491109e-01
-1.521658742011352539e-01
-2.796333819602579429e-01
-2.274680230266073189e-01
-4.286974673567630068e-01
-3.686937872607786160e-01
-5.075400423913266623e-01
-3.583476744522265944e-01
-4.376284517525340090e-01
-5.755022992203068233e-01
-4.622464938503891840e-01
-2.634192192174146241e-01
-4.216332590541804759e-01
-6.027423604807087276e-01
-3.070131712391604983e-01
-5.822084632309482144e-01
-6.592896636612710637e-01
-3.333366086162814490e-01
-4.115425998567396881e-01
-5.714286350791517588e-01
-6.447826937801073299e-01
-5.130177684790822035e-01
-4.785587792273570118e-01
-5.415833275906294375e-01
-6.251225548132859355e-01
-7.112470252892101330e-01
-5.269757375978386671e-01
-3.768399344359240621e-01
-6.451909079782236489e-01
-6.290955356371417118e-01
-6.443799154340185131e-01
-7.250216831044279386e-01
-6.884563595373511813e-01
-6.554927238613112994e-01
-8.043641387705291468e-01
-5.340912012292216016e-01
-7.620218600165653555e-01
-6.211676449021990010e-01
-6.258970646803972970e-01
-7.581086530775575927e-01
-6.096839135254898956e-01
-6.637442265565467459e-01
-5.796177669783416642e-01
-7.758836617016545700e-01
-5.990367745518023757e-01
-7.184186939534844552e-01
-6.266324716155848851e-01
-7.700938873891375325e-01
-7.073521011747740950e-01
-8.012859066551247800e-01
-7.371374359985372049e-01
-7.316969925934847518e-01
-8.504155231488543798e-01
-7.109155455789247791e-01
-6.062271929467208942e-01
-5.969878898077488616e-01
-7.229894485757264455e-01
-6.757679257218958124e-01
-7.322855814477440273e-01
-7.545923991765250971e-01
-7.641500849202456092e-01
-6.540039355057463144e-01
-5.881732947257042321e-01
-6.738892304406645106e-01
-8.755205697704125933e-01
-6.816211219352005246e-01
-7.354989282676196449e-01
-5.023895739262880245e-01
-5.317128956413444962e-01
-7.981014838704760805e-01
-6.377557055542290021e-01
-7.081797646526561962e-01
-3.743774282714282808e-01
-5.034090911108126676e-01
-7.289254695751993252e-01
-4.402836579819517926e-01
-5.279856266820827093e-01
-6.126540070525244852e-01
-5.749432749520433372e-01
-6.851817098471734147e-01
-2.758934712675066847e-01
-6.707287404928642394e-01
-6.475798117881492733e-01
-4.080425554785094833e-01
-5.864044324635097061e-01
-4.078214916832811343e-01
-5.005567663719779903e-01
-5.584804335785003016e-01
-4.731915271074096374e-01
-4.755016205220309322e-01
-5.047659351992851429e-01
-4.189370612502922309e-01
-2.907844100710074708e-01
-1.867496433645879916e-01
-3.434962489514442607e-01
-3.659358805750174137e-01
-2.135846885199840783e-01
-2.365002465020267230e-01
-2.408475133498438059e-01
-1.352188447435851426e-01
1.773884816507093287e+00
1.024216545189177374e+00
4.280265407028772673e-01
9.321891075967847495e-02
1.509330978182302774e-01
-2.841923057080080195e-01
-1.712085507597699841e-01
-1.038052065292134063e-01
-2.045558075208462057e-01
-1.005841103795388630e-02
9.313403268802114554e-02
-2.786078800967012326e-02
8.039912777895770121e-03
5.622133645682936276e-02
1.873557365665252106e-01
8.750944025460387354e-02
1.553905076285425901e-01
1.825024677302800047e-01
2.270546062416889388e-01
1.075657946543265853e-01
2.337760197883063940e-01
2.105030116660085437e-01
2.744886061656455212e-01
2.991305461057790493e-01
1.061782013827259064e-01
2.121261139694549103e-01
3.098074397079527142e-01
2.499417901135707609e-01
3.092916899028654854e-01
2.313864962218337151e-01
5.658549775693161310e-01
4.082862361183793309e-01
4.214846446121228718e-01
3.296122763712378556e-01
3.463830116673075610e-01
4.978768819698813908e-01
3.935386950140190576e-01
4.913449223528122967e-01
5.793837890805756397e-01
5.660474282146145120e-01
4.769635244062934154e-01
6.537358916260085362e-01
5.905165034496744347e-01
7.027522952831199987e-01
6.362215741294228177e-01
7.337323241194446677e-01
9.152694811946044950e-01
6.868219308452000460e-01
7.854239424525653046e-01
9.418145610713458682e-01
7.245842868867576891e-01
6.313068546134319448e-01
7.594909996009588937e-01
1.114515539983930381e+00
8.362016327420151995e-01
8.901496621699221956e-01
8.431385780137238273e-01
9.746634107560709914e-01
9.100543689150019100e-01
1.003289447957477876e+00
8.767718926792958944e-01
1.085682247514762278e+00
7.456943045312318663e-01
9.666824647824373562e-01
8.328496108325655900e-01
1.223983341260699964e+00
1.179920387595873699e+00
1.297277676283659531e+00
1.075890893521181058e+00
9.423193744609299483e-01
1.222588490457896526e+00
9.552236581102342416e-01
1.154806775787436735e+00
1.191498865122412321e+00
1.007815022649326986e+00
9.978199467979841364e-01
1.145236072526655269e+00
1.173055218858292781e+00
1.138756543205373006e+00
1.142527776291545782e+00
1.322054047577181368e+00
1.288805540511910319e+00
1.113661401578496690e+00
1.186138162474165147e+00
1.233528151710116649e+00
1.280543403300887118e+00
1.307446832913155221e+00
1.329620172291856584e+00
1.242242798051110375e+00
1.295714087928366842e+00
1.302122773806431599e+00
1.415300367634845458e+00
1.229407972934383864e+00
1.343351801089889275e+00
1.355796781568497478e+00
1.170182194808162990e+00
1.233199184251341896e+00
1.349510869076096187e+00
1.329283719722352375e+00
1.339694886329232615e+00
1.280202814422036317e+00
1.233817171951159031e+00
1.242397727702011068e+00
1.237009327841260165e+00
1.276785600392418951e+00
1.323658451566286587e+00
1.378475450225943977e+00
1.343719705699919054e+00
1.433496498610886238e+00
1.317296135433197346e+00
1.242788561668607628e+00
1.261831671105902775e+00
1.223582452838024359e+00
1.222586531509952223e+00
1.398274298129905002e+00
1.275730640710272645e+00
1.351590042293781657e+00
1.324780144498739709e+00
1.028386578106838645e+00
1.085409427008528160e+00
1.131152981558515958e+00
1.136858805623206514e+00
1.121839420547104504e+00
1.053073751333297947e+00
1.079317055534759318e+00
9.857419500352225805e-01
9.614665339626913276e-01
1.092530348985393918e+00
1.005258422850143996e+00
1.137730526449518331e+00
1.139255292338007708e+00
1.005471184534624918e+00
1.011092246622270707e+00
9.275619478055064926e-01
1.008797795117173601e+00
1.283498331529110192e+00
9.919938819151397080e-01
1.106143605973860744e+00
7.293672477948295318e-01
1.106073490149289462e+00
7.824535443217121022e-01
6.637773999657412549e-01
9.218032905572461910e-01
7.294254825106750717e-01
9.987002874121110318e-01
9.669657751856787220e-01
7.146186973412118615e-01
1.005063041295418236e+00
6.488398273074725831e-01
5.627394898265052348e-01
8.184881292455059576e-01
7.063115598232239112e-01
7.375702584344064894e-01
6.380320477255241318e-01
6.916174574591212876e-01
6.471432214292511809e-01
6.988270086794617919e-01
7.034198283357824266e-01
5.579406075673544185e-01
5.496540119206700936e-01
6.169633376784746659e-01
5.291257809523033373e-01
6.147812967834662690e-01
3.136801539494439295e-01
6.561279482752740977e-01
3.066508883135987129e-01
2.760937648254763177e-01
3.438325300686647101e-01
2.598351592492525453e-01
2.668429041448359684e-01
4.006232582152667865e-01
3.022635036195046587e-01
3.695079062541906101e-01
3.445476350888272421e-01
1.501275779773664498e-01
2.474955131518516427e-01
4.227482286376322840e-01
1.594156467744914374e-01
3.214915378347109609e-01
1.087085025121469345e-01
6.575940662743769149e-02
4.012618025980176084e-02
-8.075398127527802505e-02
6.417958453384815798e-02
4.318451587140315767e-02
1.313337972874532578e-01
1.656846727718411239e-01
-2.348724736002506808e-01
-7.235575380179283533e-02
-1.025542839876927154e-01
-2.470020313960775149e-01
-2.698202617783912460e-01
3.401738196430612038e-02
-1.025630706156728245e-01
-3.429639257228749849e-01
-2.622655354336244082e-01
-1.797628740726052166e-01
-2.062749897387490816e-01
-3.535679186471939461e-01
-3.079714597333729764e-01
-3.959882599487563049e-01
-5.108877793210515605e-01
-3.838826582761784567e-01
-3.610938970050253660e-01
-5.098040067599010072e-01
-4.410890706572136999e-01
-3.072908128749912704e-01
-4.194452497034236171e-01
-3.945253683981381765e-01
-5.212719770819415066e-01
-3.896936071814224856e-01
-3.359938450825339373e-01
-2.390628962388463563e-01
-4.994931936794776428e-01
-6.065604298818759732e-01
-4.945739515463781766e-01
-4.600964499248824113e-01
-6.951382197527888884e-01
-5.094901730159204778e-01
-6.623031021071213997e-01
-5.417502421889659470e-01
-8.280556160404464183e-01
-6.083153887790597736e-01
-7.376258419755065132e-01
-6.662306283139570739e-01
-9.131026809015347911e-01
-5.641197816265627329e-01
-6.557444283224805881e-01
-6.849059543384192761e-01
-7.554097502774688166e-01
-7.861522579644226738e-01
-8.253937857505700970e-01
-8.982288955956849730e-01
-7.172494267567250947e-01
-7.338704741663752973e-01
-7.988271368970722985e-01
-9.445882205633934214e-01
-6.065812234589145202e-01
-7.546429862525467769e-01
-8.265287140993820003e-01
-8.959826691195108550e-01
-8.017186383013055195e-01
-9.079499033748269499e-01
-8.361777160982173385e-01
-9.474369719868297457e-01
-8.664153254530666537e-01
-9.452626024955363970e-01
-6.846994347195295427e-01
-1.038955060228563543e+00
-8.297828977269801065e-01
-8.019491896306429890e-01
-9.403370938274364654e-01
-9.104406782451375246e-01
-8.227205883168096090e-01
-6.058866362175626685e-01
-9.113695948900160104e-01
-1.049032372822447545e+00
-9.513146327675143787e-01
-9.797791192825774376e-01
-8.531237701886478231e-01
-1.076330958379913438e+00
-6.772654373938908900e-01
-8.506922552857428821e-01
-1.020235885280376342e+00
-7.063736458399293427e-01
-8.566279803657931291e-01
-8.171623946136842287e-01
-9.235504495996138541e-01
-7.609274855456434894e-01
-6.730633945354375092e-01
-7.403694479183189348e-01
-8.462941231382676843e-01
-8.831973101768852974e-01
-6.660650594041238604e-01
-9.172986542889780548e-01
-7.586731599084250988e-01
-8.219105633540152445e-01
-7.334846775074443936e-01
-7.085211450174260239e-01
-7.128208436238175905e-01
-8.269751710001116418e-01
-7.823995250594502071e-01
-7.687513407323033343e-01
-5.443472211035633723e-01
-7.634309945487752769e-01
-5.955410519636415989e-01
-7.026416262078049035e-01
-6.389709324569188276e-01
-7.550347152668699380e-01
-5.986509578310215129e-01
-4.674265742966817738e-01
-5.945155344849650803e-01
-6.219072132471245018e-01
-4.243171366794823429e-01
-7.888459401066483245e-01
-4.762149217939747325e-01
-6.010935152301691842e-01
-4.418231394282352009e-01
1.767885532869540421e+00
6.845872488129062239e-01
3.553557680142823694e-01
-1.327694471332214188e-01
-1.989360369705682752e-01
-5.593297503662839620e-01
-4.116345523912627868e-01
-2.497973531411032400e-01
-3.816233080370887154e-01
-4.067574008592358958e-01
-2.443498038400377936e-01
-3.182657531270008944e-01
-2.995726133273307057e-01
-3.604697209327351604e-01
-2.093327734660009320e-01
-2.800899979164666043e-01
-7.053484836659310031e-02
-2.815967718359038696e-01
-5.467025870890906969e-02
-1.464634387255331627e-01
2.975883175470461772e-02
-2.116541007180697265e-01
-7.598312022907005581e-02
-1.302801683567949564e-01
-2.039255361887366280e-01
-8.093940138329791534e-02
-5.961161877488867222e-02
4.218377952615336851e-02
1.035660894471396865e-01
1.257479229545122035e-01
2.151584340129904793e-01
1.285944520555736548e-01
2.006412926574653310e-01
9.556193996388405443e-02
1.183472698280828295e-02
2.032334156977088635e-01
2.360005995043462368e-01
1.141023427753501268e-01
1.337358338142919378e-01
1.411141778196608465e-01
3.056135672087564870e-01
1.818515223187201491e-01
2.758734644079852139e-01
3.046190895922944453e-01
2.451086627004158136e-01
4.564271525942700247e-01
3.882981508702828544e-01
3.334014615999043585e-01
3.754461341691309184e-01
4.181528448676617993e-01
4.424752172030475550e-01
4.427389458698469116e-01
6.014826798189041313e-01
5.021947958210467577e-01
3.196575953750211418e-01
4.921706811800996562e-01
5.203191955750319231e-01
4.813941798342322165e-01
5.409300664286761373e-01
5.194715875013631301e-01
6.215883110053789240e-01
5.043285052827664039e-01
4.885739383226963550e-01
6.486089155193974776e-01
7.045207165474118849e-01
5.845410979241826288e-01
6.167952300992801673e-01
7.013083803922360859e-01
8.139865469480166427e-01
7.367225289735768179e-01
8.069872886606324069e-01
7.574665284350422523e-01
7.812355086302747997e-01
6.190798048620044236e-01
8.187967691974786799e-01
7.323943459654270738e-01
7.874481949839030603e-01
7.173822284084292455e-01
7.804341689743700128e-01
1.053339109330487577e+00
6.606958129544414637e-01
7.831023164506993872e-01
7.104642118808777163e-01
7.379790764985719731e-01
8.589295573472293110e-01
8.714206660374040903e-01
8.671643358291183379e-01
7.169633838976005036e-01
9.854822637431401855e-01
9.436507103147750986e-01
8.213060135966131492e-01
8.230947972048947570e-01
8.117648965187296284e-01
7.988435788526716541e-01
8.369373830609923015e-01
8.817518453700404768e-01
9.112745579145726804e-01
9.485574765568185462e-01
9.130850107431722762e-01
9.669645474122674500e-01
7.815774199476839268e-01
8.111911954279554804e-01
9.636812500817615312e-01
8.625107309689038493e-01
8.760599937085790101e-01
6.757519481800328132e-01
8.292032652847343144e-01
7.902604128596710797e-01
7.796648625393660659e-01
9.442547623029049486e-01
8.777383433064032126e-01
8.370095565092268153e-01
6.980712630654246631e-01
8.775294468326318986e-01
8.305064867300792075e-01
7.219815130262453584e-01
7.923801386798741131e-01
7.667409438326689974e-01
8.845675144554602243e-01
8.249215634592111934e-01
6.237901213293930436e-01
7.739517755338958249e-01
8.653039484135314208e-01
8.334168765579775817e-01
7.702349870243048180e-01
7.099265986105026682e-01
8.382878645265806616e-01
8.514634617373164627e-01
7.743407237964388123e-01
5.385641519957032886e-01
6.062591404401234119e-01
5.262962958221477638e-01
8.198529680256990693e-01
5.919687865298735030e-01
6.992271179189619712e-01
4.197531179086269049e-01
7.385992140762804858e-01
6.122463271176649124e-01
5.617012334342561530e-01
5.458866156089771104e-01
4.833999762238028186e-01
5.057087713559709208e-01
5.325560750362090534e-01
4.446555103094222416e-01
6.016843616307220310e-01
4.859159160230479002e-01
5.116551410203827865e-01
2.378889313979584141e-01
3.959467562834184107e-01
3.095879724691576462e-01
4.590195197185081843e-01
1.980221604016235148e-01
4.348647289498607238e-01
2.927133379561745463e-01
3.863389080949543031e-01
2.039698450968527310e-01
3.946523815904764976e-01
2.613766772415607176e-01
3.578599232347798309e-01
-5.417678930202612930e-02
3.893020613996478474e-01
3.152406574466272704e-01
-4.067171049111018011e-02
8.721902691855659695e-02
-6.056302190273865627e-03
8.143233023102262880e-02
-1.479559271942850196e-01
1.134054228617875464e-02
1.696489101354942963e-01
-6.251172425406380240e-02
-1.494011891191180941e-01
-6.076114213724505969e-02
4.173378411208968075e-02
-2.557056133249984153e-01
-2.596955175575620389e-01
-1.806049567376099840e-01
-7.806416457039583312e-03
-1.322995486587347225e-01
-3.921071620191440843e-02
-2.244208920637562610e-01
-3.052868826807209612e-01
-3.037520013994490231e-01
-3.152549125572592370e-01
-1.567324067470249882e-01
-4.855370332119049448e-01
-2.307154554526487100e-01
-3.944871448538380676e-01
-4.498085893828928650e-01
-3.925781016133557122e-01
-5.189659979872952578e-01
-3.053519567975484517e-01
-3.871068176638339242e-01
-5.779510149870847879e-01
-4.880241364742312626e-01
-3.624815427084845387e-01
-4.943680390201320995e-01
-6.429369057498378615e-01
-6.308618912436853021e-01
-7.572003560579948500e-01
-6.605474302123928165e-01
-7.180580992405851681e-01
-7.590676659210540134e-01
-8.532646047463223749e-01
-6.957175184129010814e-01
-6.870664189914357234e-01
-9.388311181681693318e-01
-8.084436931890645051e-01
-8.632148321278690917e-01
-9.092904576731892785e-01
-7.821164669853202245e-01
-7.314505285725532158e-01
-9.587909583871618846e-01
-5.947387040205385222e-01
-1.038582358441015874e+00
-1.027951861853815263e+00
-1.066870845214366481e+00
-9.602462341235632470e-01
-9.237609539095199551e-01
-1.046419730368749690e+00
-9.984113959634890456e-01
-9.531801800100891953e-01
-1.211932995772617705e+00
-1.037826687869811693e+00
-1.136975696394511681e+00
-1.061662357893508268e+00
-9.566915844732750696e-01
-1.072418923701001559e+00
-1.084822783785283962e+00
-1.088137509246603685e+00
-1.302363425775551864e+00
-1.137839618510263051e+00
-1.034619034021028838e+00
-1.372719449223819499e+00
-1.145571192117921688e+00
-1.343891234742780938e+00
-1.170066905695834603e+00
-1.285201008354047048e+00
-1.118180597231656526e+00
-1.338639928784127520e+00
-1.389810819571539069e+00
-1.266019754239783079e+00
-1.197431585759006767e+00
-1.172754368495690702e+00
-1.265034448138239398e+00
-1.166004440923173346e+00
-1.286812281330528052e+00
-1.299023712313405854e+00
-1.314972125309395778e+00
-1.319996924282588635e+00
-1.263023077671120431e+00
-1.337754095700765644e+00
-1.224037550291495968e+00
-1.309510911494554231e+00
-1.279457772620613554e+00
-1.271961954018540064e+00
-1.154992280077851152e+00
-1.281276319606861280e+00
-1.077239748678320730e+00
-1.190712453703463680e+00
-1.121838107156244435e+00
-1.200130945243504943e+00
-1.408355528947970559e+00
-1.223267952260308711e+00
-1.159153159389376908e+00
-9.400599110434157968e-01
-1.127041780178983821e+00
-1.411269540095889674e+00
-1.165509564533698583e+00
-1.194675547685976280e+00
-1.338702995297518461e+00
-1.401294277457907800e+00
-1.068328941190775483e+00
-1.246806000084628829e+00
-1.139901685555866573e+00
-1.205777523476394331e+00
-1.033406432256695817e+00
-1.213539324032701705e+00
-1.214111524150006671e+00
-1.188546501242310427e+00
-1.181188111020605724e+00
-1.228724729338728228e+00
-1.159500960799755287e+00
-1.188349772811500227e+00
-1.062783586256545121e+00
-1.201796869645157750e+00
-1.050577127799318777e+00
-1.086083410018283679e+00
-9.370972383020101937e-01
-1.106646687710052257e+00
-1.203665885888711706e+00
-9.906703812133383913e-01
-9.518816234501592533e-01
-9.426982135779431449e-01
-9.263519429737201438e-01
-9.984518755676081714e-01
-8.427647238904927285e-01
-1.028026659071143767e+00
-8.958021492599446134e-01
1.140812459260331257e+00
2.504831810878267451e-01
-1.241780067967669376e-01
-2.529798810744374182e-01
-4.875744389517631117e-01
-7.016282173092702745e-01
-6.164858400203898636e-01
-8.143873031975905619e-01
-8.181565985043115496e-01
-6.487082297125308372e-01
-4.963111643403111950e-01
-7.422727581699590793e-01
-4.166288779326922098e-01
-5.400194284014677715e-01
-6.332728853043515516e-01
-6.319451196357064315e-01
-6.266115844740504093e-01
-4.687457546104338846e-01
-5.307152974864911554e-01
-5.438437226482623066e-01
-4.212587492486429275e-01
-3.840898325397025248e-01
-3.533802450988108856e-01
-2.797758696283974555e-01
-4.828749020383666934e-01
-2.562319498557944497e-01
-4.498151281659832357e-01
-3.895287919255738807e-01
-3.231674876345412284e-01
-3.356786566018162277e-01
-3.319660830455276046e-01
-2.353529520935595254e-01
-2.224901821611614539e-01
-1.715951636543762981e-01
-1.775135350984813343e-01
-1.090885889486883920e-01
-2.853105944011264938e-01
-1.658952023211866800e-01
-1.062338759445513314e-01
-1.826621652870339119e-01
-1.181839807504344031e-01
-5.061613944447892338e-02
-6.011327080495276753e-02
-2.859212873079970338e-02
5.840232846032560737e-02
6.542464884294159344e-02
5.535046408189386868e-02
9.493309849972497716e-02
1.647051098185609852e-01
-2.240293090969386336e-02
8.039780667544493831e-02
-1.041360611567407335e-01
1.972829419168866671e-01
2.344247049770314950e-02
4.196728758467319631e-01
1.756197284611782372e-02
2.329305732755064251e-01
3.155176129790216444e-01
3.289782229097620303e-01
3.149121166198861621e-01
2.097520216055435704e-01
3.120043786314741219e-01
2.675839544775813761e-01
2.693015859741214602e-01
2.816806013578873058e-01
4.973232920305372673e-01
2.652821295321357020e-01
3.134623247516524769e-01
5.420720136197892947e-01
5.791449285560373861e-01
4.247081839286941940e-01
4.268656755397375324e-01
5.301316511333523662e-01
3.720307125112394808e-01
5.347807337120152882e-01
3.687633093989783895e-01
5.117416527408712446e-01
4.287068640573275524e-01
5.240794370770277544e-01
5.459685581943326538e-01
6.043906852459256518e-01
6.807148908945144239e-01
5.966230979012281388e-01
7.328967239902774988e-01
5.480974192146533808e-01
5.094616962776679081e-01
6.471003792592838755e-01
7.413239307615585583e-01
6.346623837329937734e-01
5.570821132028703770e-01
7.220569467403425978e-01
7.441629424614966126e-01
7.316229602196748782e-01
7.897306775821903990e-01
8.073149571195938901e-01
6.377869198379039206e-01
7.305278724598652795e-01
7.290352082213583662e-01
6.843290335288544357e-01
6.451254868831303169e-01
8.631476833885152189e-01
8.547683028771030367e-01
7.633315954390489377e-01
6.889925141122154040e-01
8.424223343810921527e-01
6.891791444270409794e-01
7.718594107625230683e-01
7.547074176811487956e-01
7.203323307701873235e-01
5.791128560198675057e-01
8.853814441577196881e-01
6.249283434283756655e-01
8.261449254672311726e-01
7.212549382881867643e-01
8.312033505868640093e-01
7.281789524987071216e-01
6.092876712440116194e-01
8.171463012423223482e-01
6.108169054444748669e-01
6.765471719927536043e-01
6.216074195684389014e-01
6.020845863167025858e-01
6.257639742944989258e-01
6.619038191364365886e-01
4.284702415953762777e-01
5.429414552317026743e-01
5.379566875652712632e-01
6.373188449006134126e-01
5.016070650999557845e-01
6.295875030655284643e-01
6.468112875327970412e-01
5.713235885038536743e-01
6.449604179709312879e-01
3.495531049160408577e-01
4.473438015673512069e-01
5.544354153460361312e-01
7.652889411936203423e-01
4.497911471793136773e-01
6.167909501717174781e-01
5.066119052849112903e-01
3.550769374028514558e-01
5.309804286983185184e-01
4.900527593918699854e-01
3.518383849121041740e-01
3.762406598924116219e-01
4.374573661397311852e-01
3.728725555390928204e-01
2.094275821433621843e-01
2.670314442208112093e-01
4.501601414797206657e-01
3.859717483885273248e-01
2.034707841274689955e-01
2.043429819523451818e-01
3.135488225119770767e-01
9.878303855544190437e-02
2.010081778770859140e-01
1.753370470188989616e-01
1.498373414595965680e-01
2.149373936249047989e-01
1.611375066057731398e-01
2.517534339430964052e-01
2.539171655588268184e-01
-4.197283594923123529e-02
1.772532340267222728e-01
1.625818941868563405e-01
1.327344769967950810e-01
1.764725327732101223e-01
7.426506133690960465e-04
-4.742880333566625028e-02
-1.629983527936179274e-02
-4.622563126493197533e-02
-8.040908607205912717e-02
-1.133470636714266483e-01
-2.152403066533474241e-01
-1.511408386317359687e-01
-1.192254591558673527e-01
8.162528791607884249e-02
-1.767458032072424245e-01
-3.467116262416966022e-01
-4.112310426102345762e-01
-2.613132381355853795e-01
-1.531990497379899785e-01
-1.534945951556169474e-01
-2.420228042874690288e-01
-3.009216322682263245e-01
-5.135980016262861048e-01
-1.941536102496764227e-01
-3.721109898440369546e-01
-4.372568119178520951e-01
-5.133282789418940339e-01
-2.283832850811146065e-01
-3.436325405250113540e-01
-5.197837886857565870e-01
-3.086555369731632248e-01
-4.627486702457929146e-01
-6.114894160404312773e-01
-5.621683524722228542e-01
-3.891043901173467101e-01
-6.354271029613797195e-01
-6.251971516021525010e-01
-8.147944767723083181e-01
-7.834628028183482362e-01
-4.652303268502039346e-01
-7.214016807792242858e-01
-7.042442926974720185e-01
-6.922878259019157321e-01
-6.777914438288515919e-01
-7.411065318729873619e-01
-6.397289463299532519e-01
-7.002094256554673990e-01
-7.657372049427058069e-01
-5.928163226217928461e-01
-6.246045289791491983e-01
-7.916072802104657802e-01
-8.567674565665506226e-01
-8.925608984818430569e-01
-9.334050426563148539e-01
-9.097776339225988051e-01
-9.473492919479001850e-01
-7.529686513121320868e-01
-8.677048231260748867e-01
-8.468334796697865041e-01
-1.042225250745846044e+00
-1.222243363241428238e+00
-1.102847497579174219e+00
-1.024862794342871863e+00
-1.076414226042749167e+00
-9.276903779791706439e-01
-1.142728813984095648e+00
-1.000862829600236426e+00
-9.777020555737844232e-01
-1.034527112371899982e+00
-9.879387207118531800e-01
-1.003123105017241778e+00
-1.068724535051131186e+00
-1.132844659062449910e+00
-1.201851929339646352e+00
-1.023500598344537993e+00
-1.099760205022707327e+00
